# ECG I-Ref,ECG II-Ref,ECG III-Ref,ECG AVR-Ref,ECG AVL-Ref,ECG AVF-Ref,ECG V1-Ref,ECG V2-Ref,ECG V3-Ref,ECG V4-Ref,ECG V5-Ref,ECG V6-Ref
0.000000000000000000e+00,0.000000000000000000e+00,0.000000000000000000e+00,0.000000000000000000e+00,0.000000000000000000e+00,0.000000000000000000e+00,0.000000000000000000e+00,0.000000000000000000e+00,0.000000000000000000e+00,0.000000000000000000e+00,0.000000000000000000e+00,0.000000000000000000e+00
1.500000000000000038e-05,1.275000000000000092e-03,1.260000000000000052e-03,-1.275000000000000092e-03,0.000000000000000000e+00,1.275000000000000092e-03,-7.349999999999999763e-04,-8.350000000000000217e-04,-8.549999999999999658e-04,-8.549999999999999658e-04,-8.649999999999999920e-04,-8.350000000000000217e-04
3.000000000000000076e-05,2.550000000000000183e-03,2.520000000000000104e-03,-2.550000000000000183e-03,0.000000000000000000e+00,2.550000000000000183e-03,-1.469999999999999953e-03,-1.670000000000000043e-03,-1.709999999999999932e-03,-1.709999999999999932e-03,-1.729999999999999984e-03,-1.670000000000000043e-03
7.000000000000000742e-05,3.825000000000000275e-03,3.755000000000000091e-03,-3.765000000000000117e-03,-6.000000000000000152e-05,3.825000000000000275e-03,-2.145000000000000205e-03,-2.425000000000000506e-03,-2.455000000000000151e-03,-2.464999999999999743e-03,-2.484999999999999796e-03,-2.410000000000000250e-03
1.100000000000000039e-04,5.100000000000000366e-03,4.990000000000000512e-03,-4.980000000000000919e-03,-1.200000000000000030e-04,5.100000000000000366e-03,-2.820000000000000024e-03,-3.180000000000000101e-03,-3.200000000000000153e-03,-3.220000000000000206e-03,-3.240000000000000258e-03,-3.150000000000000022e-03
1.000000000000000048e-04,5.310000000000000484e-03,5.210000000000000221e-03,-4.445000000000000166e-03,-9.250000000000000409e-04,5.370000000000000641e-03,-2.565000000000000006e-03,-2.874999999999999951e-03,-2.885000000000000411e-03,-2.899999999999999800e-03,-2.919999999999999853e-03,-2.850000000000000103e-03
8.999999999999999212e-05,5.520000000000000601e-03,5.429999999999999931e-03,-3.910000000000000281e-03,-1.729999999999999984e-03,5.640000000000000048e-03,-2.309999999999999987e-03,-2.569999999999999802e-03,-2.569999999999999802e-03,-2.580000000000000262e-03,-2.600000000000000314e-03,-2.550000000000000183e-03
3.000000000000000076e-05,4.245000000000000509e-03,4.214999999999999997e-03,-2.635000000000000189e-03,-1.729999999999999984e-03,4.364999999999999956e-03,-1.374999999999999920e-03,-1.515000000000000071e-03,-1.505000000000000044e-03,-1.510000000000000057e-03,-1.520000000000000084e-03,-1.500000000000000031e-03
-3.000000000000000076e-05,2.970000000000000417e-03,3.000000000000000062e-03,-1.360000000000000098e-03,-1.729999999999999984e-03,3.089999999999999865e-03,-4.400000000000000157e-04,-4.600000000000000139e-04,-4.400000000000000157e-04,-4.400000000000000157e-04,-4.400000000000000157e-04,-4.500000000000000419e-04
-1.500000000000000038e-05,1.695000000000000109e-03,1.709999999999999932e-03,-6.650000000000000095e-04,-1.150000000000000197e-03,1.814999999999999990e-03,-2.300000000000000070e-04,-2.400000000000000061e-04,-2.200000000000000078e-04,-2.250000000000000209e-04,-2.250000000000000209e-04,-2.250000000000000209e-04
0.000000000000000000e+00,4.200000000000000174e-04,4.200000000000000174e-04,3.000000000000000076e-05,-5.700000000000000856e-04,5.400000000000000069e-04,-2.000000000000000164e-05,-2.000000000000000164e-05,0.000000000000000000e+00,-1.000000000000000082e-05,-1.000000000000000082e-05,0.000000000000000000e+00
3.000000000000000076e-05,1.634999999999999952e-03,1.605000000000000090e-03,-1.245000000000000230e-03,-5.150000000000000498e-04,1.760000000000000063e-03,-7.349999999999999763e-04,-8.300000000000001170e-04,-8.350000000000000217e-04,-8.400000000000000348e-04,-8.449999999999999395e-04,-8.050000000000000515e-04
6.000000000000000152e-05,2.850000000000000103e-03,2.789999999999999945e-03,-2.520000000000000104e-03,-4.600000000000000139e-04,2.980000000000000010e-03,-1.449999999999999900e-03,-1.640000000000000182e-03,-1.670000000000000043e-03,-1.670000000000000043e-03,-1.680000000000000070e-03,-1.610000000000000103e-03
5.500000000000000196e-05,4.125000000000000194e-03,4.070000000000000701e-03,-3.725000000000000012e-03,-5.300000000000000891e-04,4.255000000000000102e-03,-2.139999999999999975e-03,-2.415000000000000046e-03,-2.439999999999999895e-03,-2.444999999999999691e-03,-2.464999999999999743e-03,-2.385000000000000401e-03
5.000000000000000240e-05,5.400000000000000286e-03,5.350000000000000588e-03,-4.929999999999999487e-03,-5.999999999999999474e-04,5.530000000000000193e-03,-2.830000000000000050e-03,-3.190000000000000127e-03,-3.210000000000000180e-03,-3.220000000000000206e-03,-3.250000000000000284e-03,-3.160000000000000048e-03
6.000000000000000152e-05,5.505000000000000344e-03,5.445000000000000187e-03,-4.440000000000000370e-03,-1.195000000000000099e-03,5.635000000000000252e-03,-2.560000000000000209e-03,-2.874999999999999951e-03,-2.879999999999999748e-03,-2.899999999999999800e-03,-2.915000000000000056e-03,-2.850000000000000103e-03
7.000000000000000742e-05,5.610000000000000403e-03,5.539999999999999786e-03,-3.950000000000000386e-03,-1.790000000000000141e-03,5.740000000000000310e-03,-2.289999999999999935e-03,-2.560000000000000209e-03,-2.550000000000000183e-03,-2.580000000000000262e-03,-2.580000000000000262e-03,-2.540000000000000157e-03
5.000000000000000240e-05,4.335000000000000311e-03,4.285000000000000614e-03,-2.675000000000000294e-03,-1.790000000000000141e-03,4.465000000000000219e-03,-1.350000000000000071e-03,-1.500000000000000031e-03,-1.479999999999999979e-03,-1.500000000000000031e-03,-1.500000000000000031e-03,-1.479999999999999979e-03
3.000000000000000076e-05,3.060000000000000220e-03,3.030000000000000141e-03,-1.400000000000000203e-03,-1.790000000000000141e-03,3.190000000000000127e-03,-4.100000000000000454e-04,-4.400000000000000157e-04,-4.100000000000000454e-04,-4.200000000000000174e-04,-4.200000000000000174e-04,-4.200000000000000174e-04
4.000000000000000327e-05,1.785000000000000128e-03,1.745000000000000240e-03,-6.950000000000000882e-04,-1.219999999999999947e-03,1.915000000000000036e-03,-2.149999999999999947e-04,-2.350000000000000201e-04,-2.149999999999999947e-04,-2.149999999999999947e-04,-2.200000000000000078e-04,-2.200000000000000078e-04
5.000000000000000240e-05,5.100000000000000366e-04,4.600000000000000139e-04,1.000000000000000082e-05,-6.500000000000000786e-04,6.400000000000000524e-04,-2.000000000000000164e-05,-3.000000000000000076e-05,-2.000000000000000164e-05,-1.000000000000000082e-05,-2.000000000000000164e-05,-2.000000000000000164e-05
4.000000000000000327e-05,1.729999999999999984e-03,1.689999999999999879e-03,-1.265000000000000065e-03,-6.049999999999999606e-04,1.870000000000000134e-03,-7.450000000000000025e-04,-8.499999999999999526e-04,-8.599999999999999789e-04,-8.549999999999999658e-04,-8.700000000000000051e-04,-8.350000000000000217e-04
3.000000000000000076e-05,2.950000000000000365e-03,2.919999999999999853e-03,-2.540000000000000157e-03,-5.600000000000000594e-04,3.100000000000000325e-03,-1.469999999999999953e-03,-1.670000000000000043e-03,-1.699999999999999905e-03,-1.699999999999999905e-03,-1.719999999999999958e-03,-1.650000000000000208e-03
5.000000000000000240e-05,4.224999999999999589e-03,4.174999999999999892e-03,-3.745000000000000065e-03,-6.300000000000000261e-04,4.375000000000000416e-03,-2.139999999999999975e-03,-2.419999999999999842e-03,-2.450000000000000355e-03,-2.459999999999999947e-03,-2.480000000000000000e-03,-2.405000000000000453e-03
7.000000000000000742e-05,5.499999999999999681e-03,5.429999999999999931e-03,-4.950000000000000407e-03,-7.000000000000001013e-04,5.650000000000000508e-03,-2.809999999999999998e-03,-3.170000000000000075e-03,-3.200000000000000153e-03,-3.220000000000000206e-03,-3.240000000000000258e-03,-3.160000000000000048e-03
6.500000000000000786e-05,5.525000000000000397e-03,5.460000000000000443e-03,-4.429999999999999910e-03,-1.235000000000000204e-03,5.664999999999999897e-03,-2.550000000000000183e-03,-2.860000000000000129e-03,-2.874999999999999951e-03,-2.899999999999999800e-03,-2.915000000000000056e-03,-2.845000000000000306e-03
6.000000000000000152e-05,5.550000000000000246e-03,5.490000000000000088e-03,-3.910000000000000281e-03,-1.770000000000000089e-03,5.680000000000000153e-03,-2.289999999999999935e-03,-2.550000000000000183e-03,-2.550000000000000183e-03,-2.580000000000000262e-03,-2.589999999999999854e-03,-2.530000000000000131e-03
3.500000000000000371e-05,4.275000000000000154e-03,4.240000000000000713e-03,-2.635000000000000189e-03,-1.770000000000000089e-03,4.405000000000000061e-03,-1.370000000000000124e-03,-1.515000000000000071e-03,-1.500000000000000031e-03,-1.520000000000000084e-03,-1.525000000000000097e-03,-1.495000000000000235e-03
1.000000000000000082e-05,3.000000000000000062e-03,2.990000000000000470e-03,-1.360000000000000098e-03,-1.770000000000000089e-03,3.129999999999999970e-03,-4.500000000000000419e-04,-4.800000000000000122e-04,-4.500000000000000419e-04,-4.600000000000000139e-04,-4.600000000000000139e-04,-4.600000000000000139e-04
2.000000000000000164e-05,1.725000000000000188e-03,1.705000000000000135e-03,-6.750000000000000357e-04,-1.180000000000000059e-03,1.855000000000000095e-03,-2.449999999999999921e-04,-2.600000000000000314e-04,-2.400000000000000061e-04,-2.449999999999999921e-04,-2.500000000000000052e-04,-2.500000000000000052e-04
3.000000000000000076e-05,4.500000000000000419e-04,4.200000000000000174e-04,1.000000000000000082e-05,-5.900000000000000296e-04,5.800000000000000034e-04,-4.000000000000000327e-05,-4.000000000000000327e-05,-3.000000000000000076e-05,-3.000000000000000076e-05,-4.000000000000000327e-05,-4.000000000000000327e-05
6.000000000000000152e-05,1.644999999999999978e-03,1.585000000000000037e-03,-1.265000000000000065e-03,-5.050000000000000235e-04,1.770000000000000089e-03,-7.450000000000000025e-04,-8.400000000000000348e-04,-8.499999999999999526e-04,-8.449999999999999395e-04,-8.649999999999999920e-04,-8.350000000000000217e-04
8.999999999999999212e-05,2.840000000000000076e-03,2.749999999999999840e-03,-2.540000000000000157e-03,-4.200000000000000174e-04,2.959999999999999958e-03,-1.449999999999999900e-03,-1.640000000000000182e-03,-1.670000000000000043e-03,-1.660000000000000234e-03,-1.689999999999999879e-03,-1.630000000000000155e-03
7.000000000000000742e-05,4.115000000000000602e-03,4.044999999999999984e-03,-3.735000000000000039e-03,-5.000000000000000104e-04,4.235000000000000049e-03,-2.135000000000000179e-03,-2.410000000000000250e-03,-2.444999999999999691e-03,-2.444999999999999691e-03,-2.470000000000000407e-03,-2.394999999999999993e-03
5.000000000000000240e-05,5.389999999999999826e-03,5.340000000000000129e-03,-4.929999999999999487e-03,-5.800000000000000034e-04,5.510000000000000141e-03,-2.820000000000000024e-03,-3.180000000000000101e-03,-3.220000000000000206e-03,-3.230000000000000232e-03,-3.250000000000000284e-03,-3.160000000000000048e-03
5.500000000000000196e-05,5.494999999999999885e-03,5.440000000000000391e-03,-4.435000000000000574e-03,-1.185000000000000072e-03,5.619999999999999996e-03,-2.569999999999999802e-03,-2.879999999999999748e-03,-2.899999999999999800e-03,-2.915000000000000056e-03,-2.935000000000000109e-03,-2.860000000000000129e-03
6.000000000000000152e-05,5.600000000000000810e-03,5.539999999999999786e-03,-3.939999999999999926e-03,-1.790000000000000141e-03,5.730000000000000718e-03,-2.320000000000000014e-03,-2.580000000000000262e-03,-2.580000000000000262e-03,-2.600000000000000314e-03,-2.620000000000000367e-03,-2.560000000000000209e-03
3.500000000000000371e-05,4.324999999999999852e-03,4.290000000000000410e-03,-2.665000000000000268e-03,-1.790000000000000141e-03,4.454999999999999759e-03,-1.365000000000000111e-03,-1.505000000000000044e-03,-1.495000000000000235e-03,-1.505000000000000044e-03,-1.520000000000000084e-03,-1.485000000000000209e-03
1.000000000000000082e-05,3.050000000000000194e-03,3.040000000000000167e-03,-1.390000000000000176e-03,-1.790000000000000141e-03,3.180000000000000101e-03,-4.100000000000000454e-04,-4.299999999999999894e-04,-4.100000000000000454e-04,-4.100000000000000454e-04,-4.200000000000000174e-04,-4.100000000000000454e-04
1.000000000000000082e-05,1.775000000000000102e-03,1.765000000000000076e-03,-6.850000000000000620e-04,-1.219999999999999947e-03,1.905000000000000009e-03,-2.300000000000000070e-04,-2.350000000000000201e-04,-2.200000000000000078e-04,-2.149999999999999947e-04,-2.250000000000000209e-04,-2.149999999999999947e-04
1.000000000000000082e-05,5.000000000000000104e-04,4.899999999999999842e-04,2.000000000000000164e-05,-6.500000000000000786e-04,6.300000000000000261e-04,-5.000000000000000240e-05,-4.000000000000000327e-05,-3.000000000000000076e-05,-2.000000000000000164e-05,-3.000000000000000076e-05,-2.000000000000000164e-05
-5.000000000000000409e-06,1.715000000000000161e-03,1.719999999999999958e-03,-1.255000000000000039e-03,-6.099999999999999737e-04,1.865000000000000121e-03,-7.750000000000000812e-04,-8.700000000000000051e-04,-8.800000000000000313e-04,-8.700000000000000051e-04,-8.850000000000000444e-04,-8.499999999999999526e-04
-2.000000000000000164e-05,2.930000000000000313e-03,2.950000000000000365e-03,-2.530000000000000131e-03,-5.700000000000000856e-04,3.100000000000000325e-03,-1.500000000000000031e-03,-1.699999999999999905e-03,-1.729999999999999984e-03,-1.719999999999999958e-03,-1.740000000000000010e-03,-1.680000000000000070e-03
3.500000000000000371e-05,4.205000000000000404e-03,4.170000000000000095e-03,-3.745000000000000065e-03,-6.300000000000000261e-04,4.375000000000000416e-03,-2.160000000000000028e-03,-2.430000000000000302e-03,-2.464999999999999743e-03,-2.464999999999999743e-03,-2.490000000000000459e-03,-2.419999999999999842e-03
8.999999999999999212e-05,5.480000000000000496e-03,5.389999999999999826e-03,-4.959999999999999999e-03,-6.900000000000000751e-04,5.650000000000000508e-03,-2.820000000000000024e-03,-3.160000000000000048e-03,-3.200000000000000153e-03,-3.210000000000000180e-03,-3.240000000000000258e-03,-3.160000000000000048e-03
1.000000000000000048e-04,5.525000000000000397e-03,5.425000000000000135e-03,-4.454999999999999759e-03,-1.209999999999999921e-03,5.664999999999999897e-03,-2.544999999999999953e-03,-2.845000000000000306e-03,-2.865000000000000359e-03,-2.879999999999999748e-03,-2.899999999999999800e-03,-2.840000000000000076e-03
1.100000000000000039e-04,5.570000000000000298e-03,5.460000000000000443e-03,-3.950000000000000386e-03,-1.729999999999999984e-03,5.680000000000000153e-03,-2.269999999999999882e-03,-2.530000000000000131e-03,-2.530000000000000131e-03,-2.550000000000000183e-03,-2.560000000000000209e-03,-2.520000000000000104e-03
6.000000000000000152e-05,4.295000000000000207e-03,4.235000000000000049e-03,-2.675000000000000294e-03,-1.729999999999999984e-03,4.405000000000000061e-03,-1.345000000000000058e-03,-1.490000000000000005e-03,-1.479999999999999979e-03,-1.485000000000000209e-03,-1.495000000000000235e-03,-1.475000000000000182e-03
1.000000000000000082e-05,3.020000000000000115e-03,3.010000000000000089e-03,-1.400000000000000203e-03,-1.729999999999999984e-03,3.129999999999999970e-03,-4.200000000000000174e-04,-4.500000000000000419e-04,-4.299999999999999894e-04,-4.200000000000000174e-04,-4.299999999999999894e-04,-4.299999999999999894e-04
3.000000000000000076e-05,1.745000000000000240e-03,1.715000000000000161e-03,-7.000000000000001013e-04,-1.154999999999999994e-03,1.855000000000000095e-03,-2.200000000000000078e-04,-2.300000000000000070e-04,-2.149999999999999947e-04,-2.050000000000000227e-04,-2.250000000000000209e-04,-2.149999999999999947e-04
5.000000000000000240e-05,4.700000000000000401e-04,4.200000000000000174e-04,0.000000000000000000e+00,-5.800000000000000034e-04,5.800000000000000034e-04,-2.000000000000000164e-05,-1.000000000000000082e-05,0.000000000000000000e+00,1.000000000000000082e-05,-2.000000000000000164e-05,0.000000000000000000e+00
6.000000000000000152e-05,1.670000000000000043e-03,1.610000000000000103e-03,-1.275000000000000092e-03,-5.150000000000000498e-04,1.790000000000000141e-03,-7.199999999999999369e-04,-8.150000000000000777e-04,-8.300000000000001170e-04,-8.200000000000000908e-04,-8.400000000000000348e-04,-8.000000000000000383e-04
7.000000000000000742e-05,2.870000000000000155e-03,2.800000000000000405e-03,-2.550000000000000183e-03,-4.500000000000000419e-04,3.000000000000000062e-03,-1.420000000000000038e-03,-1.620000000000000129e-03,-1.660000000000000234e-03,-1.650000000000000208e-03,-1.660000000000000234e-03,-1.600000000000000077e-03
8.000000000000000654e-05,4.145000000000000247e-03,4.065000000000000904e-03,-3.755000000000000091e-03,-5.200000000000000629e-04,4.275000000000000154e-03,-2.129999999999999949e-03,-2.415000000000000046e-03,-2.450000000000000355e-03,-2.450000000000000355e-03,-2.459999999999999947e-03,-2.390000000000000197e-03
8.999999999999999212e-05,5.420000000000000338e-03,5.330000000000000536e-03,-4.959999999999999999e-03,-5.900000000000000296e-04,5.550000000000000246e-03,-2.840000000000000076e-03,-3.210000000000000180e-03,-3.240000000000000258e-03,-3.250000000000000284e-03,-3.260000000000000311e-03,-3.180000000000000101e-03
5.000000000000000240e-05,5.505000000000000344e-03,5.454999999999999780e-03,-4.435000000000000574e-03,-1.215000000000000151e-03,5.650000000000000508e-03,-2.589999999999999854e-03,-2.905000000000000464e-03,-2.919999999999999853e-03,-2.935000000000000109e-03,-2.950000000000000365e-03,-2.879999999999999748e-03
1.000000000000000082e-05,5.590000000000000351e-03,5.579999999999999891e-03,-3.910000000000000281e-03,-1.840000000000000056e-03,5.749999999999999903e-03,-2.340000000000000066e-03,-2.600000000000000314e-03,-2.600000000000000314e-03,-2.620000000000000367e-03,-2.639999999999999986e-03,-2.580000000000000262e-03
4.000000000000000327e-05,4.315000000000000259e-03,4.275000000000000154e-03,-2.635000000000000189e-03,-1.840000000000000056e-03,4.475000000000000679e-03,-1.370000000000000124e-03,-1.520000000000000084e-03,-1.505000000000000044e-03,-1.515000000000000071e-03,-1.535000000000000123e-03,-1.510000000000000057e-03
7.000000000000000742e-05,3.040000000000000167e-03,2.970000000000000417e-03,-1.360000000000000098e-03,-1.840000000000000056e-03,3.200000000000000153e-03,-4.000000000000000192e-04,-4.400000000000000157e-04,-4.100000000000000454e-04,-4.100000000000000454e-04,-4.299999999999999894e-04,-4.400000000000000157e-04
3.500000000000000371e-05,1.765000000000000076e-03,1.729999999999999984e-03,-6.650000000000000095e-04,-1.260000000000000052e-03,1.925000000000000062e-03,-2.050000000000000227e-04,-2.200000000000000078e-04,-2.050000000000000227e-04,-2.050000000000000227e-04,-2.250000000000000209e-04,-2.200000000000000078e-04
0.000000000000000000e+00,4.899999999999999842e-04,4.899999999999999842e-04,3.000000000000000076e-05,-6.800000000000000488e-04,6.500000000000000786e-04,-1.000000000000000082e-05,0.000000000000000000e+00,0.000000000000000000e+00,0.000000000000000000e+00,-2.000000000000000164e-05,0.000000000000000000e+00
3.000000000000000076e-05,1.719999999999999958e-03,1.689999999999999879e-03,-1.245000000000000230e-03,-6.199999999999999999e-04,1.865000000000000121e-03,-7.349999999999999763e-04,-8.300000000000001170e-04,-8.499999999999999526e-04,-8.449999999999999395e-04,-8.649999999999999920e-04,-8.200000000000000908e-04
6.000000000000000152e-05,2.950000000000000365e-03,2.890000000000000208e-03,-2.520000000000000104e-03,-5.600000000000000594e-04,3.080000000000000272e-03,-1.459999999999999926e-03,-1.660000000000000234e-03,-1.699999999999999905e-03,-1.689999999999999879e-03,-1.709999999999999932e-03,-1.640000000000000182e-03
8.500000000000000611e-05,4.224999999999999589e-03,4.139999999999999583e-03,-3.749999999999999861e-03,-6.049999999999999606e-04,4.355000000000000364e-03,-2.150000000000000001e-03,-2.430000000000000302e-03,-2.464999999999999743e-03,-2.459999999999999947e-03,-2.484999999999999796e-03,-2.405000000000000453e-03
1.100000000000000039e-04,5.499999999999999681e-03,5.389999999999999826e-03,-4.980000000000000919e-03,-6.500000000000000786e-04,5.629999999999999588e-03,-2.840000000000000076e-03,-3.200000000000000153e-03,-3.230000000000000232e-03,-3.230000000000000232e-03,-3.260000000000000311e-03,-3.170000000000000075e-03
8.000000000000000654e-05,5.534999999999999989e-03,5.454999999999999780e-03,-4.449999999999999963e-03,-1.219999999999999947e-03,5.669999999999999693e-03,-2.575000000000000032e-03,-2.885000000000000411e-03,-2.899999999999999800e-03,-2.910000000000000260e-03,-2.930000000000000313e-03,-2.860000000000000129e-03
5.000000000000000240e-05,5.570000000000000298e-03,5.520000000000000601e-03,-3.919999999999999873e-03,-1.790000000000000141e-03,5.709999999999999798e-03,-2.309999999999999987e-03,-2.569999999999999802e-03,-2.569999999999999802e-03,-2.589999999999999854e-03,-2.600000000000000314e-03,-2.550000000000000183e-03
5.000000000000000240e-05,4.295000000000000207e-03,4.245000000000000509e-03,-2.645000000000000216e-03,-1.790000000000000141e-03,4.435000000000000574e-03,-1.380000000000000150e-03,-1.520000000000000084e-03,-1.510000000000000057e-03,-1.525000000000000097e-03,-1.530000000000000110e-03,-1.500000000000000031e-03
5.000000000000000240e-05,3.020000000000000115e-03,2.970000000000000417e-03,-1.370000000000000124e-03,-1.790000000000000141e-03,3.160000000000000048e-03,-4.500000000000000419e-04,-4.700000000000000401e-04,-4.500000000000000419e-04,-4.600000000000000139e-04,-4.600000000000000139e-04,-4.500000000000000419e-04
4.000000000000000327e-05,1.745000000000000240e-03,1.705000000000000135e-03,-6.800000000000000488e-04,-1.205000000000000125e-03,1.884999999999999957e-03,-2.350000000000000201e-04,-2.500000000000000052e-04,-2.350000000000000201e-04,-2.350000000000000201e-04,-2.400000000000000061e-04,-2.300000000000000070e-04
3.000000000000000076e-05,4.700000000000000401e-04,4.400000000000000157e-04,1.000000000000000082e-05,-6.199999999999999999e-04,6.099999999999999737e-04,-2.000000000000000164e-05,-3.000000000000000076e-05,-2.000000000000000164e-05,-1.000000000000000082e-05,-2.000000000000000164e-05,-1.000000000000000082e-05
4.000000000000000327e-05,1.670000000000000043e-03,1.630000000000000155e-03,-1.265000000000000065e-03,-5.450000000000000200e-04,1.810000000000000194e-03,-7.249999999999999500e-04,-8.300000000000001170e-04,-8.449999999999999395e-04,-8.350000000000000217e-04,-8.549999999999999658e-04,-8.200000000000000908e-04
5.000000000000000240e-05,2.870000000000000155e-03,2.820000000000000024e-03,-2.540000000000000157e-03,-4.700000000000000401e-04,3.010000000000000089e-03,-1.430000000000000064e-03,-1.630000000000000155e-03,-1.670000000000000043e-03,-1.660000000000000234e-03,-1.689999999999999879e-03,-1.630000000000000155e-03
5.000000000000000240e-05,4.145000000000000247e-03,4.094999999999999682e-03,-3.740000000000000269e-03,-5.450000000000000200e-04,4.285000000000000614e-03,-2.145000000000000205e-03,-2.419999999999999842e-03,-2.459999999999999947e-03,-2.459999999999999947e-03,-2.480000000000000000e-03,-2.410000000000000250e-03
5.000000000000000240e-05,5.420000000000000338e-03,5.370000000000000641e-03,-4.940000000000000814e-03,-6.199999999999999999e-04,5.560000000000000706e-03,-2.860000000000000129e-03,-3.210000000000000180e-03,-3.250000000000000284e-03,-3.260000000000000311e-03,-3.269999999999999903e-03,-3.190000000000000127e-03
4.000000000000000327e-05,5.514999999999999937e-03,5.475000000000000699e-03,-4.435000000000000574e-03,-1.225000000000000177e-03,5.660000000000000100e-03,-2.600000000000000314e-03,-2.905000000000000464e-03,-2.935000000000000109e-03,-2.939999999999999905e-03,-2.955000000000000161e-03,-2.895000000000000004e-03
3.000000000000000076e-05,5.610000000000000403e-03,5.579999999999999891e-03,-3.930000000000000333e-03,-1.830000000000000029e-03,5.759999999999999495e-03,-2.340000000000000066e-03,-2.600000000000000314e-03,-2.620000000000000367e-03,-2.620000000000000367e-03,-2.639999999999999986e-03,-2.600000000000000314e-03
3.000000000000000076e-05,4.335000000000000311e-03,4.304999999999999799e-03,-2.655000000000000242e-03,-1.830000000000000029e-03,4.485000000000000271e-03,-1.380000000000000150e-03,-1.525000000000000097e-03,-1.525000000000000097e-03,-1.525000000000000097e-03,-1.540000000000000136e-03,-1.520000000000000084e-03
3.000000000000000076e-05,3.060000000000000220e-03,3.030000000000000141e-03,-1.380000000000000150e-03,-1.830000000000000029e-03,3.210000000000000180e-03,-4.200000000000000174e-04,-4.500000000000000419e-04,-4.299999999999999894e-04,-4.299999999999999894e-04,-4.400000000000000157e-04,-4.400000000000000157e-04
4.000000000000000327e-05,1.785000000000000128e-03,1.745000000000000240e-03,-6.900000000000000751e-04,-1.245000000000000230e-03,1.935000000000000088e-03,-2.100000000000000087e-04,-2.250000000000000209e-04,-2.149999999999999947e-04,-2.100000000000000087e-04,-2.200000000000000078e-04,-2.149999999999999947e-04
5.000000000000000240e-05,5.100000000000000366e-04,4.600000000000000139e-04,0.000000000000000000e+00,-6.599999999999999964e-04,6.599999999999999964e-04,0.000000000000000000e+00,0.000000000000000000e+00,0.000000000000000000e+00,1.000000000000000082e-05,0.000000000000000000e+00,1.000000000000000082e-05
7.000000000000000742e-05,1.729999999999999984e-03,1.660000000000000234e-03,-1.275000000000000092e-03,-5.900000000000000296e-04,1.865000000000000121e-03,-7.249999999999999500e-04,-8.250000000000001039e-04,-8.449999999999999395e-04,-8.350000000000000217e-04,-8.449999999999999395e-04,-8.100000000000000646e-04
8.999999999999999212e-05,2.950000000000000365e-03,2.860000000000000129e-03,-2.550000000000000183e-03,-5.200000000000000629e-04,3.070000000000000246e-03,-1.449999999999999900e-03,-1.650000000000000208e-03,-1.689999999999999879e-03,-1.680000000000000070e-03,-1.689999999999999879e-03,-1.630000000000000155e-03
8.999999999999999212e-05,4.224999999999999589e-03,4.134999999999999787e-03,-3.755000000000000091e-03,-5.900000000000000296e-04,4.344999999999999904e-03,-2.135000000000000179e-03,-2.415000000000000046e-03,-2.450000000000000355e-03,-2.444999999999999691e-03,-2.455000000000000151e-03,-2.385000000000000401e-03
8.999999999999999212e-05,5.499999999999999681e-03,5.409999999999999878e-03,-4.959999999999999999e-03,-6.599999999999999964e-04,5.619999999999999996e-03,-2.820000000000000024e-03,-3.180000000000000101e-03,-3.210000000000000180e-03,-3.210000000000000180e-03,-3.220000000000000206e-03,-3.139999999999999996e-03
5.500000000000000196e-05,5.525000000000000397e-03,5.470000000000000036e-03,-4.425000000000000114e-03,-1.235000000000000204e-03,5.660000000000000100e-03,-2.565000000000000006e-03,-2.874999999999999951e-03,-2.899999999999999800e-03,-2.895000000000000004e-03,-2.910000000000000260e-03,-2.845000000000000306e-03
2.000000000000000164e-05,5.550000000000000246e-03,5.530000000000000193e-03,-3.890000000000000228e-03,-1.810000000000000194e-03,5.700000000000000205e-03,-2.309999999999999987e-03,-2.569999999999999802e-03,-2.589999999999999854e-03,-2.580000000000000262e-03,-2.600000000000000314e-03,-2.550000000000000183e-03
1.500000000000000038e-05,4.275000000000000154e-03,4.259999999999999898e-03,-2.615000000000000137e-03,-1.810000000000000194e-03,4.425000000000000114e-03,-1.380000000000000150e-03,-1.525000000000000097e-03,-1.525000000000000097e-03,-1.515000000000000071e-03,-1.530000000000000110e-03,-1.505000000000000044e-03
1.000000000000000082e-05,3.000000000000000062e-03,2.990000000000000470e-03,-1.340000000000000045e-03,-1.810000000000000194e-03,3.150000000000000022e-03,-4.500000000000000419e-04,-4.800000000000000122e-04,-4.600000000000000139e-04,-4.500000000000000419e-04,-4.600000000000000139e-04,-4.600000000000000139e-04
2.000000000000000164e-05,1.725000000000000188e-03,1.705000000000000135e-03,-6.599999999999999964e-04,-1.215000000000000151e-03,1.874999999999999931e-03,-2.400000000000000061e-04,-2.550000000000000183e-04,-2.449999999999999921e-04,-2.300000000000000070e-04,-2.449999999999999921e-04,-2.350000000000000201e-04
3.000000000000000076e-05,4.500000000000000419e-04,4.200000000000000174e-04,2.000000000000000164e-05,-6.199999999999999999e-04,5.999999999999999474e-04,-3.000000000000000076e-05,-3.000000000000000076e-05,-3.000000000000000076e-05,-1.000000000000000082e-05,-3.000000000000000076e-05,-1.000000000000000082e-05
5.000000000000000240e-05,1.644999999999999978e-03,1.595000000000000064e-03,-1.255000000000000039e-03,-5.300000000000000891e-04,1.785000000000000128e-03,-7.299999999999999632e-04,-8.250000000000001039e-04,-8.449999999999999395e-04,-8.300000000000001170e-04,-8.499999999999999526e-04,-8.100000000000000646e-04
7.000000000000000742e-05,2.840000000000000076e-03,2.769999999999999893e-03,-2.530000000000000131e-03,-4.400000000000000157e-04,2.970000000000000417e-03,-1.430000000000000064e-03,-1.620000000000000129e-03,-1.660000000000000234e-03,-1.650000000000000208e-03,-1.670000000000000043e-03,-1.610000000000000103e-03
8.000000000000000654e-05,4.115000000000000602e-03,4.035000000000000392e-03,-3.745000000000000065e-03,-5.000000000000000104e-04,4.245000000000000509e-03,-2.120000000000000356e-03,-2.394999999999999993e-03,-2.435000000000000098e-03,-2.435000000000000098e-03,-2.450000000000000355e-03,-2.379999999999999737e-03
8.999999999999999212e-05,5.389999999999999826e-03,5.300000000000000024e-03,-4.959999999999999999e-03,-5.600000000000000594e-04,5.520000000000000601e-03,-2.809999999999999998e-03,-3.170000000000000075e-03,-3.210000000000000180e-03,-3.220000000000000206e-03,-3.230000000000000232e-03,-3.150000000000000022e-03
8.000000000000000654e-05,5.510000000000000141e-03,5.429999999999999931e-03,-4.460000000000000422e-03,-1.180000000000000059e-03,5.640000000000000048e-03,-2.565000000000000006e-03,-2.879999999999999748e-03,-2.905000000000000464e-03,-2.915000000000000056e-03,-2.925000000000000516e-03,-2.860000000000000129e-03
7.000000000000000742e-05,5.629999999999999588e-03,5.560000000000000706e-03,-3.959999999999999978e-03,-1.800000000000000168e-03,5.759999999999999495e-03,-2.320000000000000014e-03,-2.589999999999999854e-03,-2.600000000000000314e-03,-2.609999999999999907e-03,-2.620000000000000367e-03,-2.569999999999999802e-03
6.000000000000000152e-05,4.355000000000000364e-03,4.295000000000000207e-03,-2.685000000000000320e-03,-1.800000000000000168e-03,4.485000000000000271e-03,-1.365000000000000111e-03,-1.515000000000000071e-03,-1.510000000000000057e-03,-1.515000000000000071e-03,-1.525000000000000097e-03,-1.500000000000000031e-03
5.000000000000000240e-05,3.080000000000000272e-03,3.030000000000000141e-03,-1.410000000000000012e-03,-1.800000000000000168e-03,3.210000000000000180e-03,-4.100000000000000454e-04,-4.400000000000000157e-04,-4.200000000000000174e-04,-4.200000000000000174e-04,-4.299999999999999894e-04,-4.299999999999999894e-04
3.000000000000000076e-05,1.804999999999999964e-03,1.775000000000000102e-03,-6.900000000000000751e-04,-1.245000000000000230e-03,1.935000000000000088e-03,-2.350000000000000201e-04,-2.500000000000000052e-04,-2.400000000000000061e-04,-2.350000000000000201e-04,-2.449999999999999921e-04,-2.350000000000000201e-04
1.000000000000000082e-05,5.300000000000000891e-04,5.200000000000000629e-04,3.000000000000000076e-05,-6.900000000000000751e-04,6.599999999999999964e-04,-6.000000000000000152e-05,-6.000000000000000152e-05,-6.000000000000000152e-05,-5.000000000000000240e-05,-6.000000000000000152e-05,-4.000000000000000327e-05
3.000000000000000076e-05,1.729999999999999984e-03,1.699999999999999905e-03,-1.245000000000000230e-03,-6.199999999999999999e-04,1.865000000000000121e-03,-7.650000000000000550e-04,-8.649999999999999920e-04,-8.800000000000000313e-04,-8.750000000000000182e-04,-8.950000000000000707e-04,-8.499999999999999526e-04
5.000000000000000240e-05,2.930000000000000313e-03,2.879999999999999748e-03,-2.520000000000000104e-03,-5.500000000000000331e-04,3.070000000000000246e-03,-1.469999999999999953e-03,-1.670000000000000043e-03,-1.699999999999999905e-03,-1.699999999999999905e-03,-1.729999999999999984e-03,-1.660000000000000234e-03
5.000000000000000240e-05,4.205000000000000404e-03,4.155000000000000707e-03,-3.725000000000000012e-03,-6.199999999999999999e-04,4.344999999999999904e-03,-2.139999999999999975e-03,-2.415000000000000046e-03,-2.450000000000000355e-03,-2.455000000000000151e-03,-2.484999999999999796e-03,-2.405000000000000453e-03
5.000000000000000240e-05,5.480000000000000496e-03,5.429999999999999931e-03,-4.929999999999999487e-03,-6.900000000000000751e-04,5.619999999999999996e-03,-2.809999999999999998e-03,-3.160000000000000048e-03,-3.200000000000000153e-03,-3.210000000000000180e-03,-3.240000000000000258e-03,-3.150000000000000022e-03
7.000000000000000742e-05,5.534999999999999989e-03,5.465000000000000240e-03,-4.440000000000000370e-03,-1.225000000000000177e-03,5.664999999999999897e-03,-2.550000000000000183e-03,-2.854999999999999899e-03,-2.874999999999999951e-03,-2.885000000000000411e-03,-2.910000000000000260e-03,-2.840000000000000076e-03
8.999999999999999212e-05,5.590000000000000351e-03,5.499999999999999681e-03,-3.950000000000000386e-03,-1.760000000000000063e-03,5.709999999999999798e-03,-2.289999999999999935e-03,-2.550000000000000183e-03,-2.550000000000000183e-03,-2.560000000000000209e-03,-2.580000000000000262e-03,-2.530000000000000131e-03
7.000000000000000742e-05,4.315000000000000259e-03,4.245000000000000509e-03,-2.675000000000000294e-03,-1.760000000000000063e-03,4.435000000000000574e-03,-1.345000000000000058e-03,-1.490000000000000005e-03,-1.479999999999999979e-03,-1.490000000000000005e-03,-1.500000000000000031e-03,-1.479999999999999979e-03
5.000000000000000240e-05,3.040000000000000167e-03,2.990000000000000470e-03,-1.400000000000000203e-03,-1.760000000000000063e-03,3.160000000000000048e-03,-4.000000000000000192e-04,-4.299999999999999894e-04,-4.100000000000000454e-04,-4.200000000000000174e-04,-4.200000000000000174e-04,-4.299999999999999894e-04
4.499999999999999606e-05,1.765000000000000076e-03,1.719999999999999958e-03,-7.000000000000001013e-04,-1.185000000000000072e-03,1.884999999999999957e-03,-2.000000000000000096e-04,-2.050000000000000227e-04,-2.000000000000000096e-04,-2.000000000000000096e-04,-2.050000000000000227e-04,-2.050000000000000227e-04
4.000000000000000327e-05,4.899999999999999842e-04,4.500000000000000419e-04,0.000000000000000000e+00,-6.099999999999999737e-04,6.099999999999999737e-04,0.000000000000000000e+00,2.000000000000000164e-05,1.000000000000000082e-05,2.000000000000000164e-05,1.000000000000000082e-05,2.000000000000000164e-05
5.500000000000000196e-05,1.670000000000000043e-03,1.615000000000000116e-03,-1.275000000000000092e-03,-5.200000000000000629e-04,1.794999999999999938e-03,-7.050000000000000060e-04,-7.849999999999999990e-04,-8.100000000000000646e-04,-8.050000000000000515e-04,-8.200000000000000908e-04,-7.900000000000000121e-04
7.000000000000000742e-05,2.850000000000000103e-03,2.780000000000000353e-03,-2.550000000000000183e-03,-4.299999999999999894e-04,2.980000000000000010e-03,-1.410000000000000012e-03,-1.590000000000000050e-03,-1.630000000000000155e-03,-1.630000000000000155e-03,-1.650000000000000208e-03,-1.600000000000000077e-03
8.999999999999999212e-05,4.125000000000000194e-03,4.035000000000000392e-03,-3.760000000000000321e-03,-4.949999999999999973e-04,4.255000000000000102e-03,-2.100000000000000304e-03,-2.360000000000000119e-03,-2.399999999999999790e-03,-2.405000000000000453e-03,-2.430000000000000302e-03,-2.365000000000000348e-03
1.100000000000000039e-04,5.400000000000000286e-03,5.290000000000000431e-03,-4.969999999999999592e-03,-5.600000000000000594e-04,5.530000000000000193e-03,-2.789999999999999945e-03,-3.129999999999999970e-03,-3.170000000000000075e-03,-3.180000000000000101e-03,-3.210000000000000180e-03,-3.129999999999999970e-03
8.999999999999999212e-05,5.530000000000000193e-03,5.440000000000000391e-03,-4.470000000000000015e-03,-1.189999999999999869e-03,5.660000000000000100e-03,-2.540000000000000157e-03,-2.820000000000000024e-03,-2.850000000000000103e-03,-2.860000000000000129e-03,-2.890000000000000208e-03,-2.830000000000000050e-03
7.000000000000000742e-05,5.660000000000000100e-03,5.590000000000000351e-03,-3.970000000000000438e-03,-1.820000000000000003e-03,5.790000000000000008e-03,-2.289999999999999935e-03,-2.510000000000000078e-03,-2.530000000000000131e-03,-2.540000000000000157e-03,-2.569999999999999802e-03,-2.530000000000000131e-03
5.500000000000000196e-05,4.385000000000000009e-03,4.330000000000000515e-03,-2.694999999999999913e-03,-1.820000000000000003e-03,4.514999999999999916e-03,-1.345000000000000058e-03,-1.445000000000000104e-03,-1.455000000000000130e-03,-1.465000000000000156e-03,-1.485000000000000209e-03,-1.475000000000000182e-03
4.000000000000000327e-05,3.109999999999999917e-03,3.070000000000000246e-03,-1.420000000000000038e-03,-1.820000000000000003e-03,3.240000000000000258e-03,-4.000000000000000192e-04,-3.800000000000000209e-04,-3.800000000000000209e-04,-3.900000000000000471e-04,-4.000000000000000192e-04,-4.200000000000000174e-04
5.500000000000000196e-05,1.835000000000000043e-03,1.780000000000000115e-03,-7.100000000000000191e-04,-1.255000000000000039e-03,1.965000000000000167e-03,-1.950000000000000236e-04,-1.499999999999999869e-04,-1.649999999999999991e-04,-1.700000000000000122e-04,-1.799999999999999842e-04,-1.900000000000000105e-04
7.000000000000000742e-05,5.600000000000000594e-04,4.899999999999999842e-04,0.000000000000000000e+00,-6.900000000000000751e-04,6.900000000000000751e-04,1.000000000000000082e-05,8.000000000000000654e-05,5.000000000000000240e-05,5.000000000000000240e-05,4.000000000000000327e-05,4.000000000000000327e-05
6.500000000000000786e-05,1.745000000000000240e-03,1.680000000000000070e-03,-1.275000000000000092e-03,-5.999999999999999474e-04,1.874999999999999931e-03,-7.249999999999999500e-04,-7.550000000000000287e-04,-8.000000000000000383e-04,-7.950000000000000252e-04,-8.150000000000000777e-04,-7.900000000000000121e-04
6.000000000000000152e-05,2.930000000000000313e-03,2.870000000000000155e-03,-2.550000000000000183e-03,-5.100000000000000366e-04,3.060000000000000220e-03,-1.459999999999999926e-03,-1.590000000000000050e-03,-1.650000000000000208e-03,-1.640000000000000182e-03,-1.670000000000000043e-03,-1.620000000000000129e-03
1.150000000000000035e-04,4.205000000000000404e-03,4.089999999999999886e-03,-3.775000000000000144e-03,-5.600000000000000594e-04,4.335000000000000311e-03,-2.145000000000000205e-03,-2.350000000000000092e-03,-2.415000000000000046e-03,-2.410000000000000250e-03,-2.435000000000000098e-03,-2.374999999999999941e-03
1.700000000000000122e-04,5.480000000000000496e-03,5.310000000000000484e-03,-5.000000000000000104e-03,-6.099999999999999737e-04,5.610000000000000403e-03,-2.830000000000000050e-03,-3.109999999999999917e-03,-3.180000000000000101e-03,-3.180000000000000101e-03,-3.200000000000000153e-03,-3.129999999999999970e-03
1.700000000000000122e-04,5.550000000000000246e-03,5.380000000000000233e-03,-4.500000000000000527e-03,-1.154999999999999994e-03,5.655000000000000304e-03,-2.569999999999999802e-03,-2.809999999999999998e-03,-2.845000000000000306e-03,-2.845000000000000306e-03,-2.865000000000000359e-03,-2.805000000000000202e-03
1.700000000000000122e-04,5.619999999999999996e-03,5.449999999999999983e-03,-4.000000000000000083e-03,-1.699999999999999905e-03,5.700000000000000205e-03,-2.309999999999999987e-03,-2.510000000000000078e-03,-2.510000000000000078e-03,-2.510000000000000078e-03,-2.530000000000000131e-03,-2.480000000000000000e-03
1.250000000000000026e-04,4.344999999999999904e-03,4.219999999999999793e-03,-2.724999999999999992e-03,-1.699999999999999905e-03,4.425000000000000114e-03,-1.394999999999999973e-03,-1.485000000000000209e-03,-1.465000000000000156e-03,-1.459999999999999926e-03,-1.469999999999999953e-03,-1.445000000000000104e-03
8.000000000000000654e-05,3.070000000000000246e-03,2.990000000000000470e-03,-1.449999999999999900e-03,-1.699999999999999905e-03,3.150000000000000022e-03,-4.800000000000000122e-04,-4.600000000000000139e-04,-4.200000000000000174e-04,-4.100000000000000454e-04,-4.100000000000000454e-04,-4.100000000000000454e-04
8.500000000000000611e-05,1.794999999999999938e-03,1.709999999999999932e-03,-7.399999999999999894e-04,-1.134999999999999941e-03,1.874999999999999931e-03,-2.600000000000000314e-04,-2.350000000000000201e-04,-2.100000000000000087e-04,-1.900000000000000105e-04,-1.900000000000000105e-04,-1.799999999999999842e-04
8.999999999999999212e-05,5.200000000000000629e-04,4.299999999999999894e-04,-3.000000000000000076e-05,-5.700000000000000856e-04,5.999999999999999474e-04,-4.000000000000000327e-05,-1.000000000000000082e-05,0.000000000000000000e+00,3.000000000000000076e-05,3.000000000000000076e-05,5.000000000000000240e-05
1.200000000000000030e-04,1.695000000000000109e-03,1.575000000000000011e-03,-1.304999999999999953e-03,-4.750000000000000533e-04,1.780000000000000115e-03,-7.600000000000000418e-04,-8.250000000000001039e-04,-8.400000000000000348e-04,-8.100000000000000646e-04,-8.150000000000000777e-04,-7.700000000000000681e-04
1.499999999999999869e-04,2.870000000000000155e-03,2.720000000000000195e-03,-2.580000000000000262e-03,-3.800000000000000209e-04,2.959999999999999958e-03,-1.479999999999999979e-03,-1.640000000000000182e-03,-1.680000000000000070e-03,-1.650000000000000208e-03,-1.660000000000000234e-03,-1.590000000000000050e-03
1.300000000000000157e-04,4.145000000000000247e-03,4.014999999999999472e-03,-3.775000000000000144e-03,-4.600000000000000139e-04,4.235000000000000049e-03,-2.165000000000000258e-03,-2.415000000000000046e-03,-2.455000000000000151e-03,-2.435000000000000098e-03,-2.444999999999999691e-03,-2.370000000000000145e-03
1.100000000000000039e-04,5.420000000000000338e-03,5.310000000000000484e-03,-4.969999999999999592e-03,-5.400000000000000069e-04,5.510000000000000141e-03,-2.850000000000000103e-03,-3.190000000000000127e-03,-3.230000000000000232e-03,-3.220000000000000206e-03,-3.230000000000000232e-03,-3.150000000000000022e-03
1.100000000000000039e-04,5.525000000000000397e-03,5.415000000000000542e-03,-4.475000000000000679e-03,-1.150000000000000197e-03,5.624999999999999792e-03,-2.615000000000000137e-03,-2.905000000000000464e-03,-2.930000000000000313e-03,-2.919999999999999853e-03,-2.930000000000000313e-03,-2.860000000000000129e-03
1.100000000000000039e-04,5.629999999999999588e-03,5.520000000000000601e-03,-3.980000000000000031e-03,-1.760000000000000063e-03,5.740000000000000310e-03,-2.379999999999999737e-03,-2.620000000000000367e-03,-2.629999999999999959e-03,-2.620000000000000367e-03,-2.629999999999999959e-03,-2.569999999999999802e-03
7.000000000000000742e-05,4.355000000000000364e-03,4.285000000000000614e-03,-2.704999999999999939e-03,-1.760000000000000063e-03,4.465000000000000219e-03,-1.430000000000000064e-03,-1.554999999999999959e-03,-1.544999999999999932e-03,-1.535000000000000123e-03,-1.540000000000000136e-03,-1.505000000000000044e-03
3.000000000000000076e-05,3.080000000000000272e-03,3.050000000000000194e-03,-1.430000000000000064e-03,-1.760000000000000063e-03,3.190000000000000127e-03,-4.800000000000000122e-04,-4.899999999999999842e-04,-4.600000000000000139e-04,-4.500000000000000419e-04,-4.500000000000000419e-04,-4.400000000000000157e-04
2.500000000000000120e-05,1.804999999999999964e-03,1.780000000000000115e-03,-7.050000000000000060e-04,-1.209999999999999921e-03,1.915000000000000036e-03,-2.800000000000000297e-04,-2.750000000000000166e-04,-2.550000000000000183e-04,-2.350000000000000201e-04,-2.400000000000000061e-04,-2.250000000000000209e-04
2.000000000000000164e-05,5.300000000000000891e-04,5.100000000000000366e-04,2.000000000000000164e-05,-6.599999999999999964e-04,6.400000000000000524e-04,-8.000000000000000654e-05,-6.000000000000000152e-05,-5.000000000000000240e-05,-2.000000000000000164e-05,-3.000000000000000076e-05,-1.000000000000000082e-05
5.500000000000000196e-05,1.729999999999999984e-03,1.675000000000000057e-03,-1.255000000000000039e-03,-5.900000000000000296e-04,1.845000000000000069e-03,-7.900000000000000121e-04,-8.750000000000000182e-04,-8.850000000000000444e-04,-8.599999999999999789e-04,-8.700000000000000051e-04,-8.250000000000001039e-04
8.999999999999999212e-05,2.930000000000000313e-03,2.840000000000000076e-03,-2.530000000000000131e-03,-5.200000000000000629e-04,3.050000000000000194e-03,-1.500000000000000031e-03,-1.689999999999999879e-03,-1.719999999999999958e-03,-1.699999999999999905e-03,-1.709999999999999932e-03,-1.640000000000000182e-03
1.050000000000000044e-04,4.205000000000000404e-03,4.099999999999999478e-03,-3.749999999999999861e-03,-5.750000000000000987e-04,4.324999999999999852e-03,-2.185000000000000310e-03,-2.450000000000000355e-03,-2.484999999999999796e-03,-2.464999999999999743e-03,-2.475000000000000203e-03,-2.394999999999999993e-03
1.200000000000000030e-04,5.480000000000000496e-03,5.360000000000000181e-03,-4.969999999999999592e-03,-6.300000000000000261e-04,5.600000000000000810e-03,-2.870000000000000155e-03,-3.210000000000000180e-03,-3.250000000000000284e-03,-3.230000000000000232e-03,-3.240000000000000258e-03,-3.150000000000000022e-03
1.350000000000000017e-04,5.545000000000000449e-03,5.409999999999999878e-03,-4.480000000000000475e-03,-1.170000000000000033e-03,5.650000000000000508e-03,-2.575000000000000032e-03,-2.879999999999999748e-03,-2.905000000000000464e-03,-2.890000000000000208e-03,-2.890000000000000208e-03,-2.825000000000000254e-03
1.499999999999999869e-04,5.610000000000000403e-03,5.460000000000000443e-03,-3.990000000000000491e-03,-1.709999999999999932e-03,5.700000000000000205e-03,-2.280000000000000342e-03,-2.550000000000000183e-03,-2.560000000000000209e-03,-2.550000000000000183e-03,-2.540000000000000157e-03,-2.500000000000000052e-03
1.000000000000000048e-04,4.335000000000000311e-03,4.235000000000000049e-03,-2.714999999999999965e-03,-1.709999999999999932e-03,4.425000000000000114e-03,-1.370000000000000124e-03,-1.525000000000000097e-03,-1.520000000000000084e-03,-1.510000000000000057e-03,-1.505000000000000044e-03,-1.485000000000000209e-03
5.000000000000000240e-05,3.060000000000000220e-03,3.010000000000000089e-03,-1.439999999999999874e-03,-1.709999999999999932e-03,3.150000000000000022e-03,-4.600000000000000139e-04,-5.000000000000000104e-04,-4.800000000000000122e-04,-4.700000000000000401e-04,-4.700000000000000401e-04,-4.700000000000000401e-04
3.000000000000000076e-05,1.785000000000000128e-03,1.755000000000000050e-03,-7.050000000000000060e-04,-1.170000000000000033e-03,1.874999999999999931e-03,-2.550000000000000183e-04,-2.800000000000000297e-04,-2.700000000000000035e-04,-2.500000000000000052e-04,-2.550000000000000183e-04,-2.449999999999999921e-04
1.000000000000000082e-05,5.100000000000000366e-04,5.000000000000000104e-04,3.000000000000000076e-05,-6.300000000000000261e-04,5.999999999999999474e-04,-5.000000000000000240e-05,-6.000000000000000152e-05,-6.000000000000000152e-05,-3.000000000000000076e-05,-4.000000000000000327e-05,-2.000000000000000164e-05
2.000000000000000164e-05,1.665000000000000030e-03,1.644999999999999978e-03,-1.245000000000000230e-03,-5.400000000000000069e-04,1.785000000000000128e-03,-7.500000000000000156e-04,-8.599999999999999789e-04,-8.800000000000000313e-04,-8.549999999999999658e-04,-8.750000000000000182e-04,-8.250000000000001039e-04
3.000000000000000076e-05,2.820000000000000024e-03,2.789999999999999945e-03,-2.520000000000000104e-03,-4.500000000000000419e-04,2.970000000000000417e-03,-1.449999999999999900e-03,-1.660000000000000234e-03,-1.699999999999999905e-03,-1.680000000000000070e-03,-1.709999999999999932e-03,-1.630000000000000155e-03
3.000000000000000076e-05,4.094999999999999682e-03,4.065000000000000904e-03,-3.714999999999999986e-03,-5.300000000000000891e-04,4.245000000000000509e-03,-2.129999999999999949e-03,-2.425000000000000506e-03,-2.470000000000000407e-03,-2.455000000000000151e-03,-2.484999999999999796e-03,-2.399999999999999790e-03
3.000000000000000076e-05,5.370000000000000641e-03,5.340000000000000129e-03,-4.910000000000000302e-03,-6.099999999999999737e-04,5.520000000000000601e-03,-2.809999999999999998e-03,-3.190000000000000127e-03,-3.240000000000000258e-03,-3.230000000000000232e-03,-3.260000000000000311e-03,-3.170000000000000075e-03
5.500000000000000196e-05,5.490000000000000088e-03,5.435000000000000595e-03,-4.429999999999999910e-03,-1.195000000000000099e-03,5.624999999999999792e-03,-2.585000000000000058e-03,-2.915000000000000056e-03,-2.944999999999999701e-03,-2.939999999999999905e-03,-2.959999999999999958e-03,-2.890000000000000208e-03
8.000000000000000654e-05,5.610000000000000403e-03,5.530000000000000193e-03,-3.950000000000000386e-03,-1.780000000000000115e-03,5.730000000000000718e-03,-2.360000000000000119e-03,-2.639999999999999986e-03,-2.650000000000000012e-03,-2.650000000000000012e-03,-2.660000000000000038e-03,-2.609999999999999907e-03
3.500000000000000371e-05,4.335000000000000311e-03,4.300000000000000003e-03,-2.675000000000000294e-03,-1.780000000000000115e-03,4.454999999999999759e-03,-1.390000000000000176e-03,-1.550000000000000162e-03,-1.550000000000000162e-03,-1.544999999999999932e-03,-1.554999999999999959e-03,-1.525000000000000097e-03
-1.000000000000000082e-05,3.060000000000000220e-03,3.070000000000000246e-03,-1.400000000000000203e-03,-1.780000000000000115e-03,3.180000000000000101e-03,-4.200000000000000174e-04,-4.600000000000000139e-04,-4.500000000000000419e-04,-4.400000000000000157e-04,-4.500000000000000419e-04,-4.400000000000000157e-04
2.000000000000000164e-05,1.785000000000000128e-03,1.765000000000000076e-03,-7.000000000000001013e-04,-1.205000000000000125e-03,1.905000000000000009e-03,-2.250000000000000209e-04,-2.500000000000000052e-04,-2.449999999999999921e-04,-2.350000000000000201e-04,-2.449999999999999921e-04,-2.300000000000000070e-04
5.000000000000000240e-05,5.100000000000000366e-04,4.600000000000000139e-04,0.000000000000000000e+00,-6.300000000000000261e-04,6.300000000000000261e-04,-3.000000000000000076e-05,-4.000000000000000327e-05,-4.000000000000000327e-05,-3.000000000000000076e-05,-4.000000000000000327e-05,-2.000000000000000164e-05
5.000000000000000240e-05,1.709999999999999932e-03,1.660000000000000234e-03,-1.275000000000000092e-03,-5.650000000000000725e-04,1.840000000000000056e-03,-7.450000000000000025e-04,-8.599999999999999789e-04,-8.800000000000000313e-04,-8.649999999999999920e-04,-8.800000000000000313e-04,-8.350000000000000217e-04
5.000000000000000240e-05,2.910000000000000260e-03,2.860000000000000129e-03,-2.550000000000000183e-03,-5.000000000000000104e-04,3.050000000000000194e-03,-1.459999999999999926e-03,-1.680000000000000070e-03,-1.719999999999999958e-03,-1.699999999999999905e-03,-1.719999999999999958e-03,-1.650000000000000208e-03
4.000000000000000327e-05,4.185000000000000352e-03,4.145000000000000247e-03,-3.730000000000000242e-03,-5.949999999999999343e-04,4.324999999999999852e-03,-2.160000000000000028e-03,-2.455000000000000151e-03,-2.495000000000000256e-03,-2.490000000000000459e-03,-2.504999999999999848e-03,-2.425000000000000506e-03
3.000000000000000076e-05,5.460000000000000443e-03,5.429999999999999931e-03,-4.910000000000000302e-03,-6.900000000000000751e-04,5.600000000000000810e-03,-2.860000000000000129e-03,-3.230000000000000232e-03,-3.269999999999999903e-03,-3.280000000000000363e-03,-3.289999999999999956e-03,-3.200000000000000153e-03
2.000000000000000164e-05,5.490000000000000088e-03,5.470000000000000036e-03,-4.389999999999999805e-03,-1.250000000000000026e-03,5.640000000000000048e-03,-2.589999999999999854e-03,-2.919999999999999853e-03,-2.944999999999999701e-03,-2.950000000000000365e-03,-2.964999999999999754e-03,-2.890000000000000208e-03
1.000000000000000082e-05,5.520000000000000601e-03,5.510000000000000141e-03,-3.870000000000000176e-03,-1.810000000000000194e-03,5.680000000000000153e-03,-2.320000000000000014e-03,-2.609999999999999907e-03,-2.620000000000000367e-03,-2.620000000000000367e-03,-2.639999999999999986e-03,-2.580000000000000262e-03
0.000000000000000000e+00,4.245000000000000509e-03,4.245000000000000509e-03,-2.595000000000000084e-03,-1.810000000000000194e-03,4.405000000000000061e-03,-1.394999999999999973e-03,-1.560000000000000189e-03,-1.560000000000000189e-03,-1.554999999999999959e-03,-1.564999999999999985e-03,-1.535000000000000123e-03
-1.000000000000000082e-05,2.970000000000000417e-03,2.980000000000000010e-03,-1.319999999999999993e-03,-1.810000000000000194e-03,3.129999999999999970e-03,-4.700000000000000401e-04,-5.100000000000000366e-04,-5.000000000000000104e-04,-4.899999999999999842e-04,-4.899999999999999842e-04,-4.899999999999999842e-04
1.000000000000000082e-05,1.695000000000000109e-03,1.685000000000000083e-03,-6.500000000000000786e-04,-1.205000000000000125e-03,1.855000000000000095e-03,-2.700000000000000035e-04,-2.950000000000000148e-04,-2.950000000000000148e-04,-2.750000000000000166e-04,-2.850000000000000428e-04,-2.800000000000000297e-04
3.000000000000000076e-05,4.200000000000000174e-04,3.900000000000000471e-04,2.000000000000000164e-05,-5.999999999999999474e-04,5.800000000000000034e-04,-7.000000000000000742e-05,-8.000000000000000654e-05,-8.999999999999999212e-05,-6.000000000000000152e-05,-8.000000000000000654e-05,-7.000000000000000742e-05
0.000000000000000000e+00,1.595000000000000064e-03,1.595000000000000064e-03,-1.229999999999999974e-03,-5.349999999999999938e-04,1.765000000000000076e-03,-7.450000000000000025e-04,-8.599999999999999789e-04,-8.850000000000000444e-04,-8.649999999999999920e-04,-8.800000000000000313e-04,-8.449999999999999395e-04
-3.000000000000000076e-05,2.769999999999999893e-03,2.800000000000000405e-03,-2.480000000000000000e-03,-4.700000000000000401e-04,2.950000000000000365e-03,-1.420000000000000038e-03,-1.640000000000000182e-03,-1.680000000000000070e-03,-1.670000000000000043e-03,-1.680000000000000070e-03,-1.620000000000000129e-03
3.500000000000000371e-05,4.044999999999999984e-03,4.009999999999999676e-03,-3.714999999999999986e-03,-5.100000000000000366e-04,4.224999999999999589e-03,-2.115000000000000126e-03,-2.415000000000000046e-03,-2.459999999999999947e-03,-2.450000000000000355e-03,-2.459999999999999947e-03,-2.390000000000000197e-03
1.000000000000000048e-04,5.320000000000000076e-03,5.219999999999999814e-03,-4.950000000000000407e-03,-5.500000000000000331e-04,5.499999999999999681e-03,-2.809999999999999998e-03,-3.190000000000000127e-03,-3.240000000000000258e-03,-3.230000000000000232e-03,-3.240000000000000258e-03,-3.160000000000000048e-03
7.499999999999999343e-05,5.460000000000000443e-03,5.385000000000000030e-03,-4.440000000000000370e-03,-1.180000000000000059e-03,5.619999999999999996e-03,-2.569999999999999802e-03,-2.905000000000000464e-03,-2.935000000000000109e-03,-2.930000000000000313e-03,-2.939999999999999905e-03,-2.879999999999999748e-03
5.000000000000000240e-05,5.600000000000000810e-03,5.550000000000000246e-03,-3.930000000000000333e-03,-1.810000000000000194e-03,5.740000000000000310e-03,-2.330000000000000040e-03,-2.620000000000000367e-03,-2.629999999999999959e-03,-2.629999999999999959e-03,-2.639999999999999986e-03,-2.600000000000000314e-03
4.000000000000000327e-05,4.324999999999999852e-03,4.285000000000000614e-03,-2.655000000000000242e-03,-1.810000000000000194e-03,4.465000000000000219e-03,-1.390000000000000176e-03,-1.554999999999999959e-03,-1.554999999999999959e-03,-1.550000000000000162e-03,-1.564999999999999985e-03,-1.540000000000000136e-03
3.000000000000000076e-05,3.050000000000000194e-03,3.020000000000000115e-03,-1.380000000000000150e-03,-1.810000000000000194e-03,3.190000000000000127e-03,-4.500000000000000419e-04,-4.899999999999999842e-04,-4.800000000000000122e-04,-4.700000000000000401e-04,-4.899999999999999842e-04,-4.800000000000000122e-04
0.000000000000000000e+00,1.775000000000000102e-03,1.775000000000000102e-03,-6.650000000000000095e-04,-1.250000000000000026e-03,1.915000000000000036e-03,-2.250000000000000209e-04,-2.550000000000000183e-04,-2.550000000000000183e-04,-2.350000000000000201e-04,-2.550000000000000183e-04,-2.449999999999999921e-04
-3.000000000000000076e-05,5.000000000000000104e-04,5.300000000000000891e-04,5.000000000000000240e-05,-6.900000000000000751e-04,6.400000000000000524e-04,0.000000000000000000e+00,-2.000000000000000164e-05,-3.000000000000000076e-05,0.000000000000000000e+00,-2.000000000000000164e-05,-1.000000000000000082e-05
-1.000000000000000082e-05,1.680000000000000070e-03,1.689999999999999879e-03,-1.225000000000000177e-03,-6.049999999999999606e-04,1.830000000000000029e-03,-7.450000000000000025e-04,-8.599999999999999789e-04,-8.850000000000000444e-04,-8.649999999999999920e-04,-8.900000000000000576e-04,-8.499999999999999526e-04
1.000000000000000082e-05,2.860000000000000129e-03,2.850000000000000103e-03,-2.500000000000000052e-03,-5.200000000000000629e-04,3.020000000000000115e-03,-1.490000000000000005e-03,-1.699999999999999905e-03,-1.740000000000000010e-03,-1.729999999999999984e-03,-1.760000000000000063e-03,-1.689999999999999879e-03
7.000000000000000742e-05,4.134999999999999787e-03,4.065000000000000904e-03,-3.735000000000000039e-03,-5.600000000000000594e-04,4.295000000000000207e-03,-2.150000000000000001e-03,-2.435000000000000098e-03,-2.475000000000000203e-03,-2.464999999999999743e-03,-2.495000000000000256e-03,-2.419999999999999842e-03
1.300000000000000157e-04,5.409999999999999878e-03,5.279999999999999971e-03,-4.969999999999999592e-03,-5.999999999999999474e-04,5.570000000000000298e-03,-2.809999999999999998e-03,-3.170000000000000075e-03,-3.210000000000000180e-03,-3.200000000000000153e-03,-3.230000000000000232e-03,-3.150000000000000022e-03
7.499999999999999343e-05,5.480000000000000496e-03,5.405000000000000082e-03,-4.429999999999999910e-03,-1.205000000000000125e-03,5.635000000000000252e-03,-2.550000000000000183e-03,-2.870000000000000155e-03,-2.899999999999999800e-03,-2.890000000000000208e-03,-2.915000000000000056e-03,-2.850000000000000103e-03
2.000000000000000164e-05,5.550000000000000246e-03,5.530000000000000193e-03,-3.890000000000000228e-03,-1.810000000000000194e-03,5.700000000000000205e-03,-2.289999999999999935e-03,-2.569999999999999802e-03,-2.589999999999999854e-03,-2.580000000000000262e-03,-2.600000000000000314e-03,-2.550000000000000183e-03
2.000000000000000164e-05,4.275000000000000154e-03,4.255000000000000102e-03,-2.615000000000000137e-03,-1.810000000000000194e-03,4.425000000000000114e-03,-1.360000000000000098e-03,-1.520000000000000084e-03,-1.530000000000000110e-03,-1.530000000000000110e-03,-1.544999999999999932e-03,-1.520000000000000084e-03
2.000000000000000164e-05,3.000000000000000062e-03,2.980000000000000010e-03,-1.340000000000000045e-03,-1.810000000000000194e-03,3.150000000000000022e-03,-4.299999999999999894e-04,-4.700000000000000401e-04,-4.700000000000000401e-04,-4.800000000000000122e-04,-4.899999999999999842e-04,-4.899999999999999842e-04
5.000000000000000409e-06,1.725000000000000188e-03,1.719999999999999958e-03,-6.500000000000000786e-04,-1.225000000000000177e-03,1.874999999999999931e-03,-2.050000000000000227e-04,-1.950000000000000236e-04,-2.250000000000000209e-04,-2.550000000000000183e-04,-2.800000000000000297e-04,-2.800000000000000297e-04
-1.000000000000000082e-05,4.500000000000000419e-04,4.600000000000000139e-04,4.000000000000000327e-05,-6.400000000000000524e-04,5.999999999999999474e-04,2.000000000000000164e-05,8.000000000000000654e-05,2.000000000000000164e-05,-3.000000000000000076e-05,-7.000000000000000742e-05,-7.000000000000000742e-05
2.000000000000000164e-05,1.650000000000000208e-03,1.630000000000000155e-03,-1.235000000000000204e-03,-5.600000000000000594e-04,1.794999999999999938e-03,-6.400000000000000524e-04,-6.199999999999999999e-04,-7.299999999999999632e-04,-7.950000000000000252e-04,-8.700000000000000051e-04,-8.549999999999999658e-04
5.000000000000000240e-05,2.850000000000000103e-03,2.800000000000000405e-03,-2.510000000000000078e-03,-4.800000000000000122e-04,2.990000000000000470e-03,-1.300000000000000157e-03,-1.319999999999999993e-03,-1.479999999999999979e-03,-1.560000000000000189e-03,-1.670000000000000043e-03,-1.640000000000000182e-03
5.000000000000000240e-05,4.125000000000000194e-03,4.075000000000000497e-03,-3.725000000000000012e-03,-5.400000000000000069e-04,4.264999999999999694e-03,-2.004999999999999838e-03,-2.095000000000000074e-03,-2.214999999999999955e-03,-2.285000000000000139e-03,-2.410000000000000250e-03,-2.374999999999999941e-03
5.000000000000000240e-05,5.400000000000000286e-03,5.350000000000000588e-03,-4.940000000000000814e-03,-5.999999999999999474e-04,5.539999999999999786e-03,-2.710000000000000169e-03,-2.870000000000000155e-03,-2.950000000000000365e-03,-3.010000000000000089e-03,-3.150000000000000022e-03,-3.109999999999999917e-03
8.999999999999999212e-05,5.555000000000000042e-03,5.465000000000000240e-03,-4.485000000000000271e-03,-1.189999999999999869e-03,5.675000000000000357e-03,-2.510000000000000078e-03,-2.655000000000000242e-03,-2.605000000000000111e-03,-2.625000000000000163e-03,-2.765000000000000097e-03,-2.775000000000000123e-03
1.300000000000000157e-04,5.709999999999999798e-03,5.579999999999999891e-03,-4.030000000000000596e-03,-1.780000000000000115e-03,5.810000000000000928e-03,-2.309999999999999987e-03,-2.439999999999999895e-03,-2.260000000000000290e-03,-2.240000000000000237e-03,-2.379999999999999737e-03,-2.439999999999999895e-03
1.600000000000000131e-04,4.435000000000000574e-03,4.275000000000000154e-03,-2.755000000000000070e-03,-1.780000000000000115e-03,4.534999999999999969e-03,-1.420000000000000038e-03,-1.515000000000000071e-03,-1.160000000000000007e-03,-1.040000000000000126e-03,-1.165000000000000020e-03,-1.265000000000000065e-03
1.900000000000000105e-04,3.160000000000000048e-03,2.970000000000000417e-03,-1.479999999999999979e-03,-1.780000000000000115e-03,3.260000000000000311e-03,-5.300000000000000891e-04,-5.900000000000000296e-04,-6.000000000000000152e-05,1.600000000000000131e-04,5.000000000000000240e-05,-8.999999999999999212e-05
2.600000000000000314e-04,1.884999999999999957e-03,1.625000000000000142e-03,-8.400000000000000348e-04,-1.144999999999999967e-03,1.985000000000000219e-03,-3.950000000000000061e-04,-5.250000000000000760e-04,1.900000000000000105e-04,5.550000000000000462e-04,4.600000000000000139e-04,2.999999999999999737e-04
3.299999999999999982e-04,6.099999999999999737e-04,2.800000000000000297e-04,-2.000000000000000096e-04,-5.100000000000000366e-04,7.100000000000000191e-04,-2.600000000000000314e-04,-4.600000000000000139e-04,4.400000000000000157e-04,9.500000000000001065e-04,8.700000000000000051e-04,6.900000000000000751e-04
3.850000000000000340e-04,1.884999999999999957e-03,1.500000000000000031e-03,-1.475000000000000182e-03,-4.849999999999999711e-04,1.959999999999999937e-03,-1.064999999999999974e-03,-1.415000000000000025e-03,-3.450000000000000375e-04,2.750000000000000166e-04,1.799999999999999842e-04,0.000000000000000000e+00
4.400000000000000157e-04,3.160000000000000048e-03,2.720000000000000195e-03,-2.749999999999999840e-03,-4.600000000000000139e-04,3.210000000000000180e-03,-1.870000000000000134e-03,-2.370000000000000145e-03,-1.130000000000000145e-03,-4.000000000000000192e-04,-5.100000000000000366e-04,-6.900000000000000751e-04
4.299999999999999894e-04,4.435000000000000574e-03,4.004999999999999880e-03,-3.950000000000000386e-03,-5.349999999999999938e-04,4.485000000000000271e-03,-2.520000000000000104e-03,-3.150000000000000022e-03,-1.800000000000000168e-03,-1.015000000000000060e-03,-1.130000000000000145e-03,-1.310000000000000183e-03
4.200000000000000174e-04,5.709999999999999798e-03,5.290000000000000431e-03,-5.150000000000000064e-03,-6.099999999999999737e-04,5.759999999999999495e-03,-3.170000000000000075e-03,-3.930000000000000333e-03,-2.470000000000000407e-03,-1.630000000000000155e-03,-1.750000000000000036e-03,-1.930000000000000075e-03
4.050000000000000323e-04,5.870000000000000218e-03,5.465000000000000240e-03,-4.735000000000000493e-03,-1.144999999999999967e-03,5.879999999999999810e-03,-3.004999999999999859e-03,-3.805000000000000222e-03,-2.385000000000000401e-03,-1.575000000000000011e-03,-1.615000000000000116e-03,-1.755000000000000050e-03
3.900000000000000471e-04,6.030000000000000637e-03,5.640000000000000048e-03,-4.320000000000000055e-03,-1.680000000000000070e-03,6.000000000000000125e-03,-2.840000000000000076e-03,-3.680000000000000111e-03,-2.300000000000000395e-03,-1.520000000000000084e-03,-1.479999999999999979e-03,-1.580000000000000024e-03
3.250000000000000393e-04,4.754999999999999678e-03,4.429999999999999910e-03,-3.044999999999999964e-03,-1.680000000000000070e-03,4.725000000000000901e-03,-1.945000000000000114e-03,-2.714999999999999965e-03,-1.525000000000000097e-03,-8.449999999999999395e-04,-6.900000000000000751e-04,-7.150000000000000322e-04
2.600000000000000314e-04,3.480000000000000020e-03,3.220000000000000206e-03,-1.770000000000000089e-03,-1.680000000000000070e-03,3.450000000000000375e-03,-1.050000000000000152e-03,-1.750000000000000036e-03,-7.500000000000000156e-04,-1.700000000000000122e-04,1.000000000000000048e-04,1.499999999999999869e-04
1.750000000000000253e-04,2.204999999999999929e-03,2.030000000000000120e-03,-9.200000000000000278e-04,-1.255000000000000039e-03,2.175000000000000284e-03,-8.150000000000000777e-04,-1.530000000000000110e-03,-7.399999999999999894e-04,-2.550000000000000183e-04,5.500000000000000196e-05,1.900000000000000105e-04
8.999999999999999212e-05,9.300000000000000541e-04,8.400000000000000348e-04,-7.000000000000000742e-05,-8.300000000000001170e-04,9.000000000000000838e-04,-5.800000000000000034e-04,-1.310000000000000183e-03,-7.299999999999999632e-04,-3.400000000000000244e-04,1.000000000000000082e-05,2.300000000000000070e-04
6.000000000000000152e-05,1.969999999999999963e-03,1.910000000000000239e-03,-1.345000000000000058e-03,-6.850000000000000620e-04,2.030000000000000120e-03,-1.275000000000000092e-03,-2.049999999999999739e-03,-1.605000000000000090e-03,-1.260000000000000052e-03,-9.300000000000000541e-04,-6.900000000000000751e-04
3.000000000000000076e-05,3.010000000000000089e-03,2.980000000000000010e-03,-2.620000000000000367e-03,-5.400000000000000069e-04,3.160000000000000048e-03,-1.969999999999999963e-03,-2.789999999999999945e-03,-2.480000000000000000e-03,-2.180000000000000080e-03,-1.870000000000000134e-03,-1.610000000000000103e-03
5.500000000000000196e-05,4.285000000000000614e-03,4.230000000000000253e-03,-3.800000000000000426e-03,-6.350000000000000392e-04,4.435000000000000574e-03,-2.595000000000000084e-03,-3.410000000000000270e-03,-3.160000000000000048e-03,-2.895000000000000004e-03,-2.635000000000000189e-03,-2.394999999999999993e-03
8.000000000000000654e-05,5.560000000000000706e-03,5.480000000000000496e-03,-4.980000000000000919e-03,-7.299999999999999632e-04,5.709999999999999798e-03,-3.220000000000000206e-03,-4.030000000000000596e-03,-3.840000000000000097e-03,-3.609999999999999928e-03,-3.399999999999999811e-03,-3.180000000000000101e-03
6.500000000000000786e-05,5.655000000000000304e-03,5.590000000000000351e-03,-4.494999999999999864e-03,-1.304999999999999953e-03,5.799999999999999600e-03,-2.935000000000000109e-03,-3.620000000000000388e-03,-3.445000000000000145e-03,-3.245000000000000055e-03,-3.065000000000000016e-03,-2.885000000000000411e-03
5.000000000000000240e-05,5.749999999999999903e-03,5.700000000000000205e-03,-4.009999999999999676e-03,-1.880000000000000161e-03,5.889999999999999403e-03,-2.650000000000000012e-03,-3.210000000000000180e-03,-3.050000000000000194e-03,-2.879999999999999748e-03,-2.730000000000000222e-03,-2.589999999999999854e-03
2.500000000000000120e-05,4.475000000000000679e-03,4.449999999999999963e-03,-2.735000000000000018e-03,-1.880000000000000161e-03,4.615000000000000178e-03,-1.655000000000000004e-03,-2.035000000000000350e-03,-1.894999999999999983e-03,-1.755000000000000050e-03,-1.625000000000000142e-03,-1.520000000000000084e-03
0.000000000000000000e+00,3.200000000000000153e-03,3.200000000000000153e-03,-1.459999999999999926e-03,-1.880000000000000161e-03,3.340000000000000087e-03,-6.599999999999999964e-04,-8.599999999999999789e-04,-7.399999999999999894e-04,-6.300000000000000261e-04,-5.200000000000000629e-04,-4.500000000000000419e-04
1.500000000000000038e-05,1.925000000000000062e-03,1.910000000000000239e-03,-7.349999999999999763e-04,-1.330000000000000019e-03,2.064999999999999995e-03,-4.050000000000000323e-04,-5.450000000000000200e-04,-4.650000000000000270e-04,-3.699999999999999947e-04,-2.850000000000000428e-04,-2.300000000000000070e-04
3.000000000000000076e-05,6.500000000000000786e-04,6.199999999999999999e-04,-1.000000000000000082e-05,-7.800000000000000943e-04,7.900000000000000121e-04,-1.499999999999999869e-04,-2.300000000000000070e-04,-1.900000000000000105e-04,-1.100000000000000039e-04,-5.000000000000000240e-05,-1.000000000000000082e-05
4.000000000000000327e-05,1.810000000000000194e-03,1.770000000000000089e-03,-1.284999999999999901e-03,-6.650000000000000095e-04,1.949999999999999910e-03,-8.250000000000001039e-04,-9.749999999999999552e-04,-9.699999999999999421e-04,-9.100000000000000016e-04,-8.750000000000000182e-04,-8.150000000000000777e-04
5.000000000000000240e-05,2.970000000000000417e-03,2.919999999999999853e-03,-2.560000000000000209e-03,-5.500000000000000331e-04,3.109999999999999917e-03,-1.500000000000000031e-03,-1.719999999999999958e-03,-1.750000000000000036e-03,-1.709999999999999932e-03,-1.699999999999999905e-03,-1.620000000000000129e-03
7.499999999999999343e-05,4.245000000000000509e-03,4.170000000000000095e-03,-3.765000000000000117e-03,-6.199999999999999999e-04,4.385000000000000009e-03,-2.165000000000000258e-03,-2.444999999999999691e-03,-2.490000000000000459e-03,-2.464999999999999743e-03,-2.455000000000000151e-03,-2.370000000000000145e-03
1.000000000000000048e-04,5.520000000000000601e-03,5.420000000000000338e-03,-4.969999999999999592e-03,-6.900000000000000751e-04,5.660000000000000100e-03,-2.830000000000000050e-03,-3.170000000000000075e-03,-3.230000000000000232e-03,-3.220000000000000206e-03,-3.210000000000000180e-03,-3.120000000000000377e-03
8.500000000000000611e-05,5.565000000000000502e-03,5.480000000000000496e-03,-4.460000000000000422e-03,-1.240000000000000000e-03,5.700000000000000205e-03,-2.560000000000000209e-03,-2.860000000000000129e-03,-2.910000000000000260e-03,-2.905000000000000464e-03,-2.899999999999999800e-03,-2.825000000000000254e-03
7.000000000000000742e-05,5.610000000000000403e-03,5.539999999999999786e-03,-3.950000000000000386e-03,-1.790000000000000141e-03,5.740000000000000310e-03,-2.289999999999999935e-03,-2.550000000000000183e-03,-2.589999999999999854e-03,-2.589999999999999854e-03,-2.589999999999999854e-03,-2.530000000000000131e-03
4.499999999999999606e-05,4.335000000000000311e-03,4.290000000000000410e-03,-2.675000000000000294e-03,-1.790000000000000141e-03,4.465000000000000219e-03,-1.365000000000000111e-03,-1.500000000000000031e-03,-1.530000000000000110e-03,-1.530000000000000110e-03,-1.530000000000000110e-03,-1.500000000000000031e-03
2.000000000000000164e-05,3.060000000000000220e-03,3.040000000000000167e-03,-1.400000000000000203e-03,-1.790000000000000141e-03,3.190000000000000127e-03,-4.400000000000000157e-04,-4.500000000000000419e-04,-4.700000000000000401e-04,-4.700000000000000401e-04,-4.700000000000000401e-04,-4.700000000000000401e-04
2.500000000000000120e-05,1.785000000000000128e-03,1.760000000000000063e-03,-6.900000000000000751e-04,-1.225000000000000177e-03,1.915000000000000036e-03,-2.350000000000000201e-04,-2.200000000000000078e-04,-2.500000000000000052e-04,-2.449999999999999921e-04,-2.500000000000000052e-04,-2.449999999999999921e-04
3.000000000000000076e-05,5.100000000000000366e-04,4.800000000000000122e-04,2.000000000000000164e-05,-6.599999999999999964e-04,6.400000000000000524e-04,-3.000000000000000076e-05,1.000000000000000082e-05,-3.000000000000000076e-05,-2.000000000000000164e-05,-3.000000000000000076e-05,-2.000000000000000164e-05
2.000000000000000164e-05,1.650000000000000208e-03,1.630000000000000155e-03,-1.245000000000000230e-03,-5.500000000000000331e-04,1.794999999999999938e-03,-7.249999999999999500e-04,-7.900000000000000121e-04,-8.599999999999999789e-04,-8.549999999999999658e-04,-8.700000000000000051e-04,-8.300000000000001170e-04
1.000000000000000082e-05,2.789999999999999945e-03,2.780000000000000353e-03,-2.510000000000000078e-03,-4.400000000000000157e-04,2.950000000000000365e-03,-1.420000000000000038e-03,-1.590000000000000050e-03,-1.689999999999999879e-03,-1.689999999999999879e-03,-1.709999999999999932e-03,-1.640000000000000182e-03
2.500000000000000120e-05,4.065000000000000904e-03,4.040000000000000188e-03,-3.714999999999999986e-03,-5.100000000000000366e-04,4.224999999999999589e-03,-2.089999999999999844e-03,-2.334999999999999836e-03,-2.435000000000000098e-03,-2.439999999999999895e-03,-2.464999999999999743e-03,-2.390000000000000197e-03
4.000000000000000327e-05,5.340000000000000129e-03,5.300000000000000024e-03,-4.919999999999999894e-03,-5.800000000000000034e-04,5.499999999999999681e-03,-2.760000000000000300e-03,-3.080000000000000272e-03,-3.180000000000000101e-03,-3.190000000000000127e-03,-3.220000000000000206e-03,-3.139999999999999996e-03
6.500000000000000786e-05,5.485000000000000292e-03,5.420000000000000338e-03,-4.445000000000000166e-03,-1.180000000000000059e-03,5.624999999999999792e-03,-2.520000000000000104e-03,-2.789999999999999945e-03,-2.879999999999999748e-03,-2.895000000000000004e-03,-2.915000000000000056e-03,-2.850000000000000103e-03
8.999999999999999212e-05,5.629999999999999588e-03,5.539999999999999786e-03,-3.970000000000000438e-03,-1.780000000000000115e-03,5.749999999999999903e-03,-2.280000000000000342e-03,-2.500000000000000052e-03,-2.580000000000000262e-03,-2.600000000000000314e-03,-2.609999999999999907e-03,-2.560000000000000209e-03
5.000000000000000240e-05,4.355000000000000364e-03,4.304999999999999799e-03,-2.694999999999999913e-03,-1.780000000000000115e-03,4.475000000000000679e-03,-1.335000000000000032e-03,-1.435000000000000078e-03,-1.505000000000000044e-03,-1.520000000000000084e-03,-1.530000000000000110e-03,-1.510000000000000057e-03
1.000000000000000082e-05,3.080000000000000272e-03,3.070000000000000246e-03,-1.420000000000000038e-03,-1.780000000000000115e-03,3.200000000000000153e-03,-3.900000000000000471e-04,-3.699999999999999947e-04,-4.299999999999999894e-04,-4.400000000000000157e-04,-4.500000000000000419e-04,-4.600000000000000139e-04
5.000000000000000409e-06,1.804999999999999964e-03,1.800000000000000168e-03,-6.950000000000000882e-04,-1.229999999999999974e-03,1.925000000000000062e-03,-1.900000000000000105e-04,-1.550000000000000000e-04,-2.200000000000000078e-04,-2.250000000000000209e-04,-2.449999999999999921e-04,-2.500000000000000052e-04
0.000000000000000000e+00,5.300000000000000891e-04,5.300000000000000891e-04,3.000000000000000076e-05,-6.800000000000000488e-04,6.500000000000000786e-04,1.000000000000000082e-05,6.000000000000000152e-05,-1.000000000000000082e-05,-1.000000000000000082e-05,-4.000000000000000327e-05,-4.000000000000000327e-05
2.500000000000000120e-05,1.709999999999999932e-03,1.685000000000000083e-03,-1.245000000000000230e-03,-5.949999999999999343e-04,1.840000000000000056e-03,-7.000000000000001013e-04,-7.399999999999999894e-04,-8.300000000000001170e-04,-8.350000000000000217e-04,-8.599999999999999789e-04,-8.400000000000000348e-04
5.000000000000000240e-05,2.890000000000000208e-03,2.840000000000000076e-03,-2.520000000000000104e-03,-5.100000000000000366e-04,3.030000000000000141e-03,-1.410000000000000012e-03,-1.540000000000000136e-03,-1.650000000000000208e-03,-1.660000000000000234e-03,-1.680000000000000070e-03,-1.640000000000000182e-03
8.000000000000000654e-05,4.165000000000000299e-03,4.085000000000000089e-03,-3.740000000000000269e-03,-5.650000000000000725e-04,4.304999999999999799e-03,-2.085000000000000048e-03,-2.295000000000000165e-03,-2.405000000000000453e-03,-2.425000000000000506e-03,-2.444999999999999691e-03,-2.390000000000000197e-03
1.100000000000000039e-04,5.440000000000000391e-03,5.330000000000000536e-03,-4.959999999999999999e-03,-6.199999999999999999e-04,5.579999999999999891e-03,-2.760000000000000300e-03,-3.050000000000000194e-03,-3.160000000000000048e-03,-3.190000000000000127e-03,-3.210000000000000180e-03,-3.139999999999999996e-03
8.500000000000000611e-05,5.505000000000000344e-03,5.420000000000000338e-03,-4.440000000000000370e-03,-1.199999999999999895e-03,5.640000000000000048e-03,-2.495000000000000256e-03,-2.740000000000000248e-03,-2.834999999999999847e-03,-2.865000000000000359e-03,-2.890000000000000208e-03,-2.834999999999999847e-03
6.000000000000000152e-05,5.570000000000000298e-03,5.510000000000000141e-03,-3.919999999999999873e-03,-1.780000000000000115e-03,5.700000000000000205e-03,-2.230000000000000211e-03,-2.430000000000000302e-03,-2.510000000000000078e-03,-2.540000000000000157e-03,-2.569999999999999802e-03,-2.530000000000000131e-03
4.499999999999999606e-05,4.295000000000000207e-03,4.250000000000000305e-03,-2.645000000000000216e-03,-1.780000000000000115e-03,4.425000000000000114e-03,-1.314999999999999980e-03,-1.394999999999999973e-03,-1.465000000000000156e-03,-1.490000000000000005e-03,-1.515000000000000071e-03,-1.495000000000000235e-03
3.000000000000000076e-05,3.020000000000000115e-03,2.990000000000000470e-03,-1.370000000000000124e-03,-1.780000000000000115e-03,3.150000000000000022e-03,-4.000000000000000192e-04,-3.599999999999999685e-04,-4.200000000000000174e-04,-4.400000000000000157e-04,-4.600000000000000139e-04,-4.600000000000000139e-04
1.000000000000000082e-05,1.745000000000000240e-03,1.735000000000000214e-03,-6.650000000000000095e-04,-1.209999999999999921e-03,1.874999999999999931e-03,-1.849999999999999973e-04,-1.300000000000000157e-04,-1.950000000000000236e-04,-2.100000000000000087e-04,-2.350000000000000201e-04,-2.350000000000000201e-04
-1.000000000000000082e-05,4.700000000000000401e-04,4.800000000000000122e-04,4.000000000000000327e-05,-6.400000000000000524e-04,5.999999999999999474e-04,3.000000000000000076e-05,1.000000000000000048e-04,3.000000000000000076e-05,2.000000000000000164e-05,-1.000000000000000082e-05,-1.000000000000000082e-05
1.000000000000000082e-05,1.630000000000000155e-03,1.620000000000000129e-03,-1.235000000000000204e-03,-5.349999999999999938e-04,1.770000000000000089e-03,-6.750000000000000357e-04,-7.000000000000001013e-04,-7.950000000000000252e-04,-8.050000000000000515e-04,-8.400000000000000348e-04,-8.150000000000000777e-04
3.000000000000000076e-05,2.789999999999999945e-03,2.760000000000000300e-03,-2.510000000000000078e-03,-4.299999999999999894e-04,2.939999999999999905e-03,-1.380000000000000150e-03,-1.500000000000000031e-03,-1.620000000000000129e-03,-1.630000000000000155e-03,-1.670000000000000043e-03,-1.620000000000000129e-03
5.500000000000000196e-05,4.065000000000000904e-03,4.009999999999999676e-03,-3.725000000000000012e-03,-4.899999999999999842e-04,4.214999999999999997e-03,-2.064999999999999995e-03,-2.265000000000000086e-03,-2.385000000000000401e-03,-2.405000000000000453e-03,-2.444999999999999691e-03,-2.385000000000000401e-03
8.000000000000000654e-05,5.340000000000000129e-03,5.259999999999999919e-03,-4.940000000000000814e-03,-5.500000000000000331e-04,5.490000000000000088e-03,-2.749999999999999840e-03,-3.030000000000000141e-03,-3.150000000000000022e-03,-3.180000000000000101e-03,-3.220000000000000206e-03,-3.150000000000000022e-03
9.500000000000000523e-05,5.494999999999999885e-03,5.400000000000000286e-03,-4.465000000000000219e-03,-1.160000000000000007e-03,5.624999999999999792e-03,-2.500000000000000052e-03,-2.735000000000000018e-03,-2.834999999999999847e-03,-2.865000000000000359e-03,-2.899999999999999800e-03,-2.845000000000000306e-03
1.100000000000000039e-04,5.650000000000000508e-03,5.539999999999999786e-03,-3.990000000000000491e-03,-1.770000000000000089e-03,5.759999999999999495e-03,-2.250000000000000264e-03,-2.439999999999999895e-03,-2.520000000000000104e-03,-2.550000000000000183e-03,-2.580000000000000262e-03,-2.540000000000000157e-03
5.000000000000000240e-05,4.375000000000000416e-03,4.324999999999999852e-03,-2.714999999999999965e-03,-1.770000000000000089e-03,4.485000000000000271e-03,-1.310000000000000183e-03,-1.384999999999999946e-03,-1.455000000000000130e-03,-1.475000000000000182e-03,-1.505000000000000044e-03,-1.490000000000000005e-03
-1.000000000000000082e-05,3.100000000000000325e-03,3.109999999999999917e-03,-1.439999999999999874e-03,-1.770000000000000089e-03,3.210000000000000180e-03,-3.699999999999999947e-04,-3.299999999999999982e-04,-3.900000000000000471e-04,-4.000000000000000192e-04,-4.299999999999999894e-04,-4.400000000000000157e-04
-1.000000000000000082e-05,1.825000000000000016e-03,1.835000000000000043e-03,-7.000000000000001013e-04,-1.235000000000000204e-03,1.935000000000000088e-03,-1.649999999999999991e-04,-1.050000000000000044e-04,-1.750000000000000253e-04,-1.849999999999999973e-04,-2.149999999999999947e-04,-2.149999999999999947e-04
-1.000000000000000082e-05,5.500000000000000331e-04,5.600000000000000594e-04,4.000000000000000327e-05,-7.000000000000001013e-04,6.599999999999999964e-04,4.000000000000000327e-05,1.200000000000000030e-04,4.000000000000000327e-05,3.000000000000000076e-05,0.000000000000000000e+00,1.000000000000000082e-05
4.000000000000000327e-05,1.719999999999999958e-03,1.680000000000000070e-03,-1.235000000000000204e-03,-5.999999999999999474e-04,1.835000000000000043e-03,-6.700000000000000226e-04,-6.900000000000000751e-04,-7.849999999999999990e-04,-7.950000000000000252e-04,-8.350000000000000217e-04,-8.050000000000000515e-04
8.999999999999999212e-05,2.890000000000000208e-03,2.800000000000000405e-03,-2.510000000000000078e-03,-5.000000000000000104e-04,3.010000000000000089e-03,-1.380000000000000150e-03,-1.500000000000000031e-03,-1.610000000000000103e-03,-1.620000000000000129e-03,-1.670000000000000043e-03,-1.620000000000000129e-03
1.100000000000000039e-04,4.165000000000000299e-03,4.054999999999999577e-03,-3.740000000000000269e-03,-5.450000000000000200e-04,4.285000000000000614e-03,-2.064999999999999995e-03,-2.260000000000000290e-03,-2.374999999999999941e-03,-2.390000000000000197e-03,-2.439999999999999895e-03,-2.379999999999999737e-03
1.300000000000000157e-04,5.440000000000000391e-03,5.310000000000000484e-03,-4.969999999999999592e-03,-5.900000000000000296e-04,5.560000000000000706e-03,-2.749999999999999840e-03,-3.020000000000000115e-03,-3.139999999999999996e-03,-3.160000000000000048e-03,-3.210000000000000180e-03,-3.139999999999999996e-03
1.000000000000000048e-04,5.514999999999999937e-03,5.415000000000000542e-03,-4.454999999999999759e-03,-1.185000000000000072e-03,5.640000000000000048e-03,-2.480000000000000000e-03,-2.710000000000000169e-03,-2.809999999999999998e-03,-2.834999999999999847e-03,-2.874999999999999951e-03,-2.825000000000000254e-03
7.000000000000000742e-05,5.590000000000000351e-03,5.520000000000000601e-03,-3.939999999999999926e-03,-1.780000000000000115e-03,5.720000000000000258e-03,-2.210000000000000159e-03,-2.399999999999999790e-03,-2.480000000000000000e-03,-2.510000000000000078e-03,-2.540000000000000157e-03,-2.510000000000000078e-03
7.000000000000000742e-05,4.315000000000000259e-03,4.245000000000000509e-03,-2.665000000000000268e-03,-1.780000000000000115e-03,4.445000000000000166e-03,-1.294999999999999927e-03,-1.365000000000000111e-03,-1.435000000000000078e-03,-1.455000000000000130e-03,-1.485000000000000209e-03,-1.475000000000000182e-03
7.000000000000000742e-05,3.040000000000000167e-03,2.970000000000000417e-03,-1.390000000000000176e-03,-1.780000000000000115e-03,3.170000000000000075e-03,-3.800000000000000209e-04,-3.299999999999999982e-04,-3.900000000000000471e-04,-4.000000000000000192e-04,-4.299999999999999894e-04,-4.400000000000000157e-04
5.000000000000000240e-05,1.765000000000000076e-03,1.715000000000000161e-03,-6.900000000000000751e-04,-1.205000000000000125e-03,1.894999999999999983e-03,-1.649999999999999991e-04,-8.999999999999999212e-05,-1.600000000000000131e-04,-1.700000000000000122e-04,-2.050000000000000227e-04,-2.050000000000000227e-04
3.000000000000000076e-05,4.899999999999999842e-04,4.600000000000000139e-04,1.000000000000000082e-05,-6.300000000000000261e-04,6.199999999999999999e-04,5.000000000000000240e-05,1.499999999999999869e-04,7.000000000000000742e-05,6.000000000000000152e-05,2.000000000000000164e-05,3.000000000000000076e-05
5.500000000000000196e-05,1.650000000000000208e-03,1.595000000000000064e-03,-1.265000000000000065e-03,-5.100000000000000366e-04,1.775000000000000102e-03,-6.550000000000000917e-04,-6.550000000000000917e-04,-7.500000000000000156e-04,-7.650000000000000550e-04,-8.100000000000000646e-04,-7.750000000000000812e-04
8.000000000000000654e-05,2.809999999999999998e-03,2.730000000000000222e-03,-2.540000000000000157e-03,-3.900000000000000471e-04,2.930000000000000313e-03,-1.360000000000000098e-03,-1.459999999999999926e-03,-1.569999999999999998e-03,-1.590000000000000050e-03,-1.640000000000000182e-03,-1.580000000000000024e-03
5.500000000000000196e-05,4.085000000000000089e-03,4.030000000000000596e-03,-3.730000000000000242e-03,-4.750000000000000533e-04,4.205000000000000404e-03,-2.069999999999999792e-03,-2.245000000000000034e-03,-2.354999999999999889e-03,-2.379999999999999737e-03,-2.435000000000000098e-03,-2.370000000000000145e-03
3.000000000000000076e-05,5.360000000000000181e-03,5.330000000000000536e-03,-4.919999999999999894e-03,-5.600000000000000594e-04,5.480000000000000496e-03,-2.780000000000000353e-03,-3.030000000000000141e-03,-3.139999999999999996e-03,-3.170000000000000075e-03,-3.230000000000000232e-03,-3.160000000000000048e-03
2.000000000000000164e-05,5.485000000000000292e-03,5.465000000000000240e-03,-4.420000000000000318e-03,-1.205000000000000125e-03,5.624999999999999792e-03,-2.535000000000000361e-03,-2.740000000000000248e-03,-2.834999999999999847e-03,-2.870000000000000155e-03,-2.919999999999999853e-03,-2.870000000000000155e-03
1.000000000000000082e-05,5.610000000000000403e-03,5.600000000000000810e-03,-3.919999999999999873e-03,-1.850000000000000082e-03,5.770000000000000823e-03,-2.289999999999999935e-03,-2.450000000000000355e-03,-2.530000000000000131e-03,-2.569999999999999802e-03,-2.609999999999999907e-03,-2.580000000000000262e-03
1.000000000000000082e-05,4.335000000000000311e-03,4.324999999999999852e-03,-2.645000000000000216e-03,-1.850000000000000082e-03,4.494999999999999864e-03,-1.325000000000000006e-03,-1.360000000000000098e-03,-1.430000000000000064e-03,-1.465000000000000156e-03,-1.505000000000000044e-03,-1.495000000000000235e-03
1.000000000000000082e-05,3.060000000000000220e-03,3.050000000000000194e-03,-1.370000000000000124e-03,-1.850000000000000082e-03,3.220000000000000206e-03,-3.599999999999999685e-04,-2.700000000000000035e-04,-3.299999999999999982e-04,-3.599999999999999685e-04,-4.000000000000000192e-04,-4.100000000000000454e-04
3.500000000000000371e-05,1.785000000000000128e-03,1.750000000000000036e-03,-6.900000000000000751e-04,-1.255000000000000039e-03,1.945000000000000114e-03,-1.649999999999999991e-04,-6.000000000000000152e-05,-1.300000000000000157e-04,-1.499999999999999869e-04,-1.950000000000000236e-04,-2.000000000000000096e-04
6.000000000000000152e-05,5.100000000000000366e-04,4.500000000000000419e-04,-1.000000000000000082e-05,-6.599999999999999964e-04,6.700000000000000226e-04,3.000000000000000076e-05,1.499999999999999869e-04,7.000000000000000742e-05,6.000000000000000152e-05,1.000000000000000082e-05,1.000000000000000082e-05
8.999999999999999212e-05,1.699999999999999905e-03,1.610000000000000103e-03,-1.284999999999999901e-03,-5.450000000000000200e-04,1.830000000000000029e-03,-6.650000000000000095e-04,-6.400000000000000524e-04,-7.349999999999999763e-04,-7.500000000000000156e-04,-8.050000000000000515e-04,-7.750000000000000812e-04
1.200000000000000030e-04,2.890000000000000208e-03,2.769999999999999893e-03,-2.560000000000000209e-03,-4.299999999999999894e-04,2.990000000000000470e-03,-1.360000000000000098e-03,-1.430000000000000064e-03,-1.540000000000000136e-03,-1.560000000000000189e-03,-1.620000000000000129e-03,-1.560000000000000189e-03
1.300000000000000157e-04,4.165000000000000299e-03,4.035000000000000392e-03,-3.765000000000000117e-03,-5.000000000000000104e-04,4.264999999999999694e-03,-2.044999999999999943e-03,-2.190000000000000106e-03,-2.305000000000000191e-03,-2.330000000000000040e-03,-2.385000000000000401e-03,-2.314999999999999784e-03
1.400000000000000148e-04,5.440000000000000391e-03,5.300000000000000024e-03,-4.969999999999999592e-03,-5.700000000000000856e-04,5.539999999999999786e-03,-2.730000000000000222e-03,-2.950000000000000365e-03,-3.070000000000000246e-03,-3.100000000000000325e-03,-3.150000000000000022e-03,-3.070000000000000246e-03
1.100000000000000039e-04,5.525000000000000397e-03,5.415000000000000542e-03,-4.460000000000000422e-03,-1.175000000000000046e-03,5.635000000000000252e-03,-2.470000000000000407e-03,-2.650000000000000012e-03,-2.755000000000000070e-03,-2.789999999999999945e-03,-2.834999999999999847e-03,-2.780000000000000353e-03
8.000000000000000654e-05,5.610000000000000403e-03,5.530000000000000193e-03,-3.950000000000000386e-03,-1.780000000000000115e-03,5.730000000000000718e-03,-2.210000000000000159e-03,-2.350000000000000092e-03,-2.439999999999999895e-03,-2.480000000000000000e-03,-2.520000000000000104e-03,-2.490000000000000459e-03
6.500000000000000786e-05,4.335000000000000311e-03,4.270000000000000358e-03,-2.675000000000000294e-03,-1.780000000000000115e-03,4.454999999999999759e-03,-1.290000000000000131e-03,-1.304999999999999953e-03,-1.380000000000000150e-03,-1.415000000000000025e-03,-1.455000000000000130e-03,-1.445000000000000104e-03
5.000000000000000240e-05,3.060000000000000220e-03,3.010000000000000089e-03,-1.400000000000000203e-03,-1.780000000000000115e-03,3.180000000000000101e-03,-3.699999999999999947e-04,-2.600000000000000314e-04,-3.200000000000000262e-04,-3.500000000000000507e-04,-3.900000000000000471e-04,-4.000000000000000192e-04
6.500000000000000786e-05,1.785000000000000128e-03,1.719999999999999958e-03,-7.050000000000000060e-04,-1.199999999999999895e-03,1.905000000000000009e-03,-1.600000000000000131e-04,-3.500000000000000371e-05,-1.050000000000000044e-04,-1.300000000000000157e-04,-1.700000000000000122e-04,-1.750000000000000253e-04
8.000000000000000654e-05,5.100000000000000366e-04,4.299999999999999894e-04,-1.000000000000000082e-05,-6.199999999999999999e-04,6.300000000000000261e-04,5.000000000000000240e-05,1.900000000000000105e-04,1.100000000000000039e-04,8.999999999999999212e-05,5.000000000000000240e-05,5.000000000000000240e-05
7.499999999999999343e-05,1.650000000000000208e-03,1.575000000000000011e-03,-1.275000000000000092e-03,-5.000000000000000104e-04,1.775000000000000102e-03,-6.550000000000000917e-04,-6.049999999999999606e-04,-7.050000000000000060e-04,-7.299999999999999632e-04,-7.750000000000000812e-04,-7.550000000000000287e-04
7.000000000000000742e-05,2.789999999999999945e-03,2.720000000000000195e-03,-2.540000000000000157e-03,-3.800000000000000209e-04,2.919999999999999853e-03,-1.360000000000000098e-03,-1.400000000000000203e-03,-1.520000000000000084e-03,-1.550000000000000162e-03,-1.600000000000000077e-03,-1.560000000000000189e-03
7.000000000000000742e-05,4.065000000000000904e-03,3.995000000000000287e-03,-3.735000000000000039e-03,-4.600000000000000139e-04,4.194999999999999944e-03,-2.060000000000000199e-03,-2.180000000000000080e-03,-2.300000000000000395e-03,-2.325000000000000244e-03,-2.379999999999999737e-03,-2.330000000000000040e-03
7.000000000000000742e-05,5.340000000000000129e-03,5.270000000000000379e-03,-4.929999999999999487e-03,-5.400000000000000069e-04,5.470000000000000036e-03,-2.760000000000000300e-03,-2.959999999999999958e-03,-3.080000000000000272e-03,-3.100000000000000325e-03,-3.160000000000000048e-03,-3.100000000000000325e-03
8.999999999999999212e-05,5.494999999999999885e-03,5.405000000000000082e-03,-4.460000000000000422e-03,-1.154999999999999994e-03,5.615000000000000199e-03,-2.510000000000000078e-03,-2.655000000000000242e-03,-2.760000000000000300e-03,-2.785000000000000149e-03,-2.850000000000000103e-03,-2.805000000000000202e-03
1.100000000000000039e-04,5.650000000000000508e-03,5.539999999999999786e-03,-3.990000000000000491e-03,-1.770000000000000089e-03,5.759999999999999495e-03,-2.260000000000000290e-03,-2.350000000000000092e-03,-2.439999999999999895e-03,-2.470000000000000407e-03,-2.540000000000000157e-03,-2.510000000000000078e-03
8.999999999999999212e-05,4.375000000000000416e-03,4.285000000000000614e-03,-2.714999999999999965e-03,-1.770000000000000089e-03,4.485000000000000271e-03,-1.294999999999999927e-03,-1.270000000000000078e-03,-1.350000000000000071e-03,-1.374999999999999920e-03,-1.435000000000000078e-03,-1.435000000000000078e-03
7.000000000000000742e-05,3.100000000000000325e-03,3.030000000000000141e-03,-1.439999999999999874e-03,-1.770000000000000089e-03,3.210000000000000180e-03,-3.299999999999999982e-04,-1.900000000000000105e-04,-2.600000000000000314e-04,-2.800000000000000297e-04,-3.299999999999999982e-04,-3.599999999999999685e-04
6.500000000000000786e-05,1.825000000000000016e-03,1.760000000000000063e-03,-7.249999999999999500e-04,-1.209999999999999921e-03,1.935000000000000088e-03,-1.200000000000000030e-04,4.000000000000000327e-05,-4.000000000000000327e-05,-6.000000000000000152e-05,-1.100000000000000039e-04,-1.350000000000000017e-04
6.000000000000000152e-05,5.500000000000000331e-04,4.899999999999999842e-04,-1.000000000000000082e-05,-6.500000000000000786e-04,6.599999999999999964e-04,8.999999999999999212e-05,2.700000000000000035e-04,1.799999999999999842e-04,1.600000000000000131e-04,1.100000000000000039e-04,8.999999999999999212e-05
1.250000000000000026e-04,1.740000000000000010e-03,1.615000000000000116e-03,-1.284999999999999901e-03,-5.450000000000000200e-04,1.830000000000000029e-03,-6.350000000000000392e-04,-5.450000000000000200e-04,-6.500000000000000786e-04,-6.700000000000000226e-04,-7.299999999999999632e-04,-7.199999999999999369e-04
1.900000000000000105e-04,2.930000000000000313e-03,2.740000000000000248e-03,-2.560000000000000209e-03,-4.400000000000000157e-04,3.000000000000000062e-03,-1.360000000000000098e-03,-1.360000000000000098e-03,-1.479999999999999979e-03,-1.500000000000000031e-03,-1.569999999999999998e-03,-1.530000000000000110e-03
1.499999999999999869e-04,4.205000000000000404e-03,4.054999999999999577e-03,-3.760000000000000321e-03,-5.150000000000000498e-04,4.275000000000000154e-03,-2.049999999999999739e-03,-2.129999999999999949e-03,-2.260000000000000290e-03,-2.280000000000000342e-03,-2.350000000000000092e-03,-2.300000000000000395e-03
1.100000000000000039e-04,5.480000000000000496e-03,5.370000000000000641e-03,-4.959999999999999999e-03,-5.900000000000000296e-04,5.550000000000000246e-03,-2.740000000000000248e-03,-2.899999999999999800e-03,-3.040000000000000167e-03,-3.060000000000000220e-03,-3.129999999999999970e-03,-3.070000000000000246e-03
1.100000000000000039e-04,5.545000000000000449e-03,5.435000000000000595e-03,-4.465000000000000219e-03,-1.170000000000000033e-03,5.635000000000000252e-03,-2.484999999999999796e-03,-2.589999999999999854e-03,-2.710000000000000169e-03,-2.735000000000000018e-03,-2.805000000000000202e-03,-2.760000000000000300e-03
1.100000000000000039e-04,5.610000000000000403e-03,5.499999999999999681e-03,-3.970000000000000438e-03,-1.750000000000000036e-03,5.720000000000000258e-03,-2.230000000000000211e-03,-2.280000000000000342e-03,-2.379999999999999737e-03,-2.410000000000000250e-03,-2.480000000000000000e-03,-2.450000000000000355e-03
8.999999999999999212e-05,4.335000000000000311e-03,4.245000000000000509e-03,-2.694999999999999913e-03,-1.750000000000000036e-03,4.445000000000000166e-03,-1.304999999999999953e-03,-1.229999999999999974e-03,-1.319999999999999993e-03,-1.345000000000000058e-03,-1.410000000000000012e-03,-1.410000000000000012e-03
7.000000000000000742e-05,3.060000000000000220e-03,2.990000000000000470e-03,-1.420000000000000038e-03,-1.750000000000000036e-03,3.170000000000000075e-03,-3.800000000000000209e-04,-1.799999999999999842e-04,-2.600000000000000314e-04,-2.800000000000000297e-04,-3.400000000000000244e-04,-3.699999999999999947e-04
8.000000000000000654e-05,1.785000000000000128e-03,1.705000000000000135e-03,-7.249999999999999500e-04,-1.170000000000000033e-03,1.894999999999999983e-03,-1.550000000000000000e-04,6.500000000000000786e-05,-2.000000000000000164e-05,-3.500000000000000371e-05,-1.000000000000000048e-04,-1.250000000000000026e-04
8.999999999999999212e-05,5.100000000000000366e-04,4.200000000000000174e-04,-3.000000000000000076e-05,-5.900000000000000296e-04,6.199999999999999999e-04,7.000000000000000742e-05,3.099999999999999999e-04,2.200000000000000078e-04,2.100000000000000087e-04,1.400000000000000148e-04,1.200000000000000030e-04
1.400000000000000148e-04,1.695000000000000109e-03,1.554999999999999959e-03,-1.304999999999999953e-03,-4.800000000000000122e-04,1.785000000000000128e-03,-6.300000000000000261e-04,-4.750000000000000533e-04,-5.900000000000000296e-04,-5.999999999999999474e-04,-6.800000000000000488e-04,-6.700000000000000226e-04
1.900000000000000105e-04,2.879999999999999748e-03,2.690000000000000117e-03,-2.580000000000000262e-03,-3.699999999999999947e-04,2.950000000000000365e-03,-1.330000000000000019e-03,-1.260000000000000052e-03,-1.400000000000000203e-03,-1.410000000000000012e-03,-1.500000000000000031e-03,-1.459999999999999926e-03
1.600000000000000131e-04,4.155000000000000707e-03,3.995000000000000287e-03,-3.780000000000000374e-03,-4.450000000000000288e-04,4.224999999999999589e-03,-2.035000000000000350e-03,-2.040000000000000147e-03,-2.180000000000000080e-03,-2.190000000000000106e-03,-2.280000000000000342e-03,-2.240000000000000237e-03
1.300000000000000157e-04,5.429999999999999931e-03,5.300000000000000024e-03,-4.980000000000000919e-03,-5.200000000000000629e-04,5.499999999999999681e-03,-2.740000000000000248e-03,-2.820000000000000024e-03,-2.959999999999999958e-03,-2.970000000000000417e-03,-3.060000000000000220e-03,-3.020000000000000115e-03
1.250000000000000026e-04,5.579999999999999891e-03,5.454999999999999780e-03,-4.505000000000000324e-03,-1.160000000000000007e-03,5.664999999999999897e-03,-2.495000000000000256e-03,-2.530000000000000131e-03,-2.650000000000000012e-03,-2.665000000000000268e-03,-2.749999999999999840e-03,-2.730000000000000222e-03
1.200000000000000030e-04,5.730000000000000718e-03,5.610000000000000403e-03,-4.030000000000000596e-03,-1.800000000000000168e-03,5.830000000000000113e-03,-2.250000000000000264e-03,-2.240000000000000237e-03,-2.340000000000000066e-03,-2.360000000000000119e-03,-2.439999999999999895e-03,-2.439999999999999895e-03
1.250000000000000026e-04,4.454999999999999759e-03,4.330000000000000515e-03,-2.755000000000000070e-03,-1.800000000000000168e-03,4.555000000000000021e-03,-1.304999999999999953e-03,-1.170000000000000033e-03,-1.255000000000000039e-03,-1.270000000000000078e-03,-1.345000000000000058e-03,-1.370000000000000124e-03
1.300000000000000157e-04,3.180000000000000101e-03,3.050000000000000194e-03,-1.479999999999999979e-03,-1.800000000000000168e-03,3.280000000000000363e-03,-3.599999999999999685e-04,-1.000000000000000048e-04,-1.700000000000000122e-04,-1.799999999999999842e-04,-2.500000000000000052e-04,-2.999999999999999737e-04
1.499999999999999869e-04,1.905000000000000009e-03,1.755000000000000050e-03,-7.800000000000000943e-04,-1.225000000000000177e-03,2.004999999999999838e-03,-1.450000000000000009e-04,1.400000000000000148e-04,6.000000000000000152e-05,6.000000000000000152e-05,-1.500000000000000038e-05,-6.000000000000000152e-05
1.700000000000000122e-04,6.300000000000000261e-04,4.600000000000000139e-04,-8.000000000000000654e-05,-6.500000000000000786e-04,7.299999999999999632e-04,7.000000000000000742e-05,3.800000000000000209e-04,2.900000000000000017e-04,2.999999999999999737e-04,2.200000000000000078e-04,1.799999999999999842e-04
1.700000000000000122e-04,1.804999999999999964e-03,1.634999999999999952e-03,-1.355000000000000085e-03,-5.400000000000000069e-04,1.894999999999999983e-03,-6.500000000000000786e-04,-4.350000000000000026e-04,-5.400000000000000069e-04,-5.300000000000000891e-04,-6.149999999999999868e-04,-6.250000000000000130e-04
1.700000000000000122e-04,2.980000000000000010e-03,2.809999999999999998e-03,-2.629999999999999959e-03,-4.299999999999999894e-04,3.060000000000000220e-03,-1.370000000000000124e-03,-1.250000000000000026e-03,-1.370000000000000124e-03,-1.360000000000000098e-03,-1.449999999999999900e-03,-1.430000000000000064e-03
1.900000000000000105e-04,4.255000000000000102e-03,4.065000000000000904e-03,-3.830000000000000071e-03,-5.050000000000000235e-04,4.335000000000000311e-03,-2.055000000000000403e-03,-2.010000000000000068e-03,-2.125000000000000153e-03,-2.120000000000000356e-03,-2.220000000000000185e-03,-2.190000000000000106e-03
2.100000000000000087e-04,5.530000000000000193e-03,5.320000000000000076e-03,-5.030000000000000616e-03,-5.800000000000000034e-04,5.610000000000000403e-03,-2.740000000000000248e-03,-2.769999999999999893e-03,-2.879999999999999748e-03,-2.879999999999999748e-03,-2.990000000000000470e-03,-2.950000000000000365e-03
1.900000000000000105e-04,5.624999999999999792e-03,5.435000000000000595e-03,-4.539999999999999765e-03,-1.165000000000000020e-03,5.705000000000000002e-03,-2.480000000000000000e-03,-2.455000000000000151e-03,-2.550000000000000183e-03,-2.555000000000000413e-03,-2.660000000000000038e-03,-2.645000000000000216e-03
1.700000000000000122e-04,5.720000000000000258e-03,5.550000000000000246e-03,-4.049999999999999781e-03,-1.750000000000000036e-03,5.799999999999999600e-03,-2.220000000000000185e-03,-2.139999999999999975e-03,-2.220000000000000185e-03,-2.230000000000000211e-03,-2.330000000000000040e-03,-2.340000000000000066e-03
1.700000000000000122e-04,4.445000000000000166e-03,4.275000000000000154e-03,-2.775000000000000123e-03,-1.750000000000000036e-03,4.525000000000000376e-03,-1.304999999999999953e-03,-1.105000000000000079e-03,-1.165000000000000020e-03,-1.170000000000000033e-03,-1.260000000000000052e-03,-1.294999999999999927e-03
1.700000000000000122e-04,3.170000000000000075e-03,3.000000000000000062e-03,-1.500000000000000031e-03,-1.750000000000000036e-03,3.250000000000000284e-03,-3.900000000000000471e-04,-7.000000000000000742e-05,-1.100000000000000039e-04,-1.100000000000000039e-04,-1.900000000000000105e-04,-2.500000000000000052e-04
1.600000000000000131e-04,1.894999999999999983e-03,1.735000000000000214e-03,-7.849999999999999990e-04,-1.189999999999999869e-03,1.975000000000000193e-03,-1.750000000000000253e-04,1.700000000000000122e-04,1.200000000000000030e-04,1.350000000000000017e-04,5.000000000000000240e-05,-5.000000000000000409e-06
1.499999999999999869e-04,6.199999999999999999e-04,4.700000000000000401e-04,-7.000000000000000742e-05,-6.300000000000000261e-04,7.000000000000001013e-04,4.000000000000000327e-05,4.100000000000000454e-04,3.500000000000000507e-04,3.800000000000000209e-04,2.900000000000000017e-04,2.400000000000000061e-04
1.700000000000000122e-04,1.785000000000000128e-03,1.615000000000000116e-03,-1.345000000000000058e-03,-5.150000000000000498e-04,1.860000000000000108e-03,-6.400000000000000524e-04,-3.750000000000000078e-04,-4.450000000000000288e-04,-4.100000000000000454e-04,-5.050000000000000235e-04,-5.300000000000000891e-04
1.900000000000000105e-04,2.950000000000000365e-03,2.760000000000000300e-03,-2.620000000000000367e-03,-4.000000000000000192e-04,3.020000000000000115e-03,-1.319999999999999993e-03,-1.160000000000000007e-03,-1.240000000000000000e-03,-1.199999999999999895e-03,-1.300000000000000157e-03,-1.300000000000000157e-03
2.200000000000000078e-04,4.224999999999999589e-03,4.004999999999999880e-03,-3.840000000000000097e-03,-4.550000000000000008e-04,4.295000000000000207e-03,-2.035000000000000350e-03,-1.945000000000000114e-03,-2.024999999999999890e-03,-1.990000000000000015e-03,-2.089999999999999844e-03,-2.075000000000000022e-03
2.500000000000000052e-04,5.499999999999999681e-03,5.250000000000000326e-03,-5.060000000000000261e-03,-5.100000000000000366e-04,5.570000000000000298e-03,-2.749999999999999840e-03,-2.730000000000000222e-03,-2.809999999999999998e-03,-2.780000000000000353e-03,-2.879999999999999748e-03,-2.850000000000000103e-03
2.100000000000000087e-04,5.645000000000000712e-03,5.435000000000000595e-03,-4.575000000000000074e-03,-1.144999999999999967e-03,5.720000000000000258e-03,-2.515000000000000308e-03,-2.450000000000000355e-03,-2.515000000000000308e-03,-2.484999999999999796e-03,-2.580000000000000262e-03,-2.575000000000000032e-03
1.700000000000000122e-04,5.790000000000000008e-03,5.619999999999999996e-03,-4.089999999999999886e-03,-1.780000000000000115e-03,5.870000000000000218e-03,-2.280000000000000342e-03,-2.170000000000000054e-03,-2.220000000000000185e-03,-2.190000000000000106e-03,-2.280000000000000342e-03,-2.300000000000000395e-03
1.849999999999999973e-04,4.514999999999999916e-03,4.330000000000000515e-03,-2.814999999999999794e-03,-1.780000000000000115e-03,4.595000000000000126e-03,-1.325000000000000006e-03,-1.100000000000000066e-03,-1.125000000000000132e-03,-1.090000000000000040e-03,-1.175000000000000046e-03,-1.219999999999999947e-03
2.000000000000000096e-04,3.240000000000000258e-03,3.040000000000000167e-03,-1.540000000000000136e-03,-1.780000000000000115e-03,3.320000000000000468e-03,-3.699999999999999947e-04,-3.000000000000000076e-05,-3.000000000000000076e-05,1.000000000000000082e-05,-7.000000000000000742e-05,-1.400000000000000148e-04
2.000000000000000096e-04,1.965000000000000167e-03,1.765000000000000076e-03,-8.300000000000001170e-04,-1.215000000000000151e-03,2.044999999999999943e-03,-1.550000000000000000e-04,2.050000000000000227e-04,1.950000000000000236e-04,2.400000000000000061e-04,1.600000000000000131e-04,9.500000000000000523e-05
2.000000000000000096e-04,6.900000000000000751e-04,4.899999999999999842e-04,-1.200000000000000030e-04,-6.500000000000000786e-04,7.700000000000000681e-04,6.000000000000000152e-05,4.400000000000000157e-04,4.200000000000000174e-04,4.700000000000000401e-04,3.900000000000000471e-04,3.299999999999999982e-04
2.100000000000000087e-04,1.870000000000000134e-03,1.660000000000000234e-03,-1.394999999999999973e-03,-5.400000000000000069e-04,1.935000000000000088e-03,-6.850000000000000620e-04,-4.050000000000000323e-04,-4.350000000000000026e-04,-3.850000000000000340e-04,-4.700000000000000401e-04,-5.050000000000000235e-04
2.200000000000000078e-04,3.050000000000000194e-03,2.830000000000000050e-03,-2.670000000000000064e-03,-4.299999999999999894e-04,3.100000000000000325e-03,-1.430000000000000064e-03,-1.250000000000000026e-03,-1.290000000000000131e-03,-1.240000000000000000e-03,-1.330000000000000019e-03,-1.340000000000000045e-03
2.000000000000000096e-04,4.324999999999999852e-03,4.125000000000000194e-03,-3.845000000000000327e-03,-5.300000000000000891e-04,4.375000000000000416e-03,-2.100000000000000304e-03,-2.004999999999999838e-03,-2.049999999999999739e-03,-1.990000000000000015e-03,-2.089999999999999844e-03,-2.089999999999999844e-03
1.799999999999999842e-04,5.600000000000000810e-03,5.420000000000000338e-03,-5.020000000000000157e-03,-6.300000000000000261e-04,5.650000000000000508e-03,-2.769999999999999893e-03,-2.760000000000000300e-03,-2.809999999999999998e-03,-2.740000000000000248e-03,-2.850000000000000103e-03,-2.840000000000000076e-03
2.350000000000000201e-04,5.714999999999999594e-03,5.480000000000000496e-03,-4.595000000000000126e-03,-1.154999999999999994e-03,5.749999999999999903e-03,-2.515000000000000308e-03,-2.470000000000000407e-03,-2.490000000000000459e-03,-2.425000000000000506e-03,-2.535000000000000361e-03,-2.540000000000000157e-03
2.900000000000000017e-04,5.830000000000000113e-03,5.539999999999999786e-03,-4.170000000000000095e-03,-1.680000000000000070e-03,5.850000000000001033e-03,-2.260000000000000290e-03,-2.180000000000000080e-03,-2.170000000000000054e-03,-2.109999999999999896e-03,-2.220000000000000185e-03,-2.240000000000000237e-03
2.500000000000000052e-04,4.555000000000000021e-03,4.304999999999999799e-03,-2.895000000000000004e-03,-1.680000000000000070e-03,4.575000000000000074e-03,-1.335000000000000032e-03,-1.140000000000000171e-03,-1.115000000000000106e-03,-1.050000000000000152e-03,-1.144999999999999967e-03,-1.189999999999999869e-03
2.100000000000000087e-04,3.280000000000000363e-03,3.070000000000000246e-03,-1.620000000000000129e-03,-1.680000000000000070e-03,3.300000000000000416e-03,-4.100000000000000454e-04,-1.000000000000000048e-04,-6.000000000000000152e-05,1.000000000000000082e-05,-7.000000000000000742e-05,-1.400000000000000148e-04
2.000000000000000096e-04,2.004999999999999838e-03,1.804999999999999964e-03,-8.700000000000000051e-04,-1.154999999999999994e-03,2.024999999999999890e-03,-1.700000000000000122e-04,1.499999999999999869e-04,1.849999999999999973e-04,2.600000000000000314e-04,1.799999999999999842e-04,1.200000000000000030e-04
1.900000000000000105e-04,7.299999999999999632e-04,5.400000000000000069e-04,-1.200000000000000030e-04,-6.300000000000000261e-04,7.500000000000000156e-04,7.000000000000000742e-05,4.000000000000000192e-04,4.299999999999999894e-04,5.100000000000000366e-04,4.299999999999999894e-04,3.800000000000000209e-04
2.100000000000000087e-04,1.870000000000000134e-03,1.660000000000000234e-03,-1.394999999999999973e-03,-5.100000000000000366e-04,1.905000000000000009e-03,-6.700000000000000226e-04,-4.500000000000000419e-04,-4.350000000000000026e-04,-3.599999999999999685e-04,-4.350000000000000026e-04,-4.600000000000000139e-04
2.300000000000000070e-04,3.010000000000000089e-03,2.780000000000000353e-03,-2.670000000000000064e-03,-3.900000000000000471e-04,3.060000000000000220e-03,-1.410000000000000012e-03,-1.300000000000000157e-03,-1.300000000000000157e-03,-1.229999999999999974e-03,-1.300000000000000157e-03,-1.300000000000000157e-03
2.000000000000000096e-04,4.285000000000000614e-03,4.085000000000000089e-03,-3.850000000000000124e-03,-4.849999999999999711e-04,4.335000000000000311e-03,-2.105000000000000100e-03,-2.089999999999999844e-03,-2.089999999999999844e-03,-2.024999999999999890e-03,-2.095000000000000074e-03,-2.085000000000000048e-03
1.700000000000000122e-04,5.560000000000000706e-03,5.389999999999999826e-03,-5.030000000000000616e-03,-5.800000000000000034e-04,5.610000000000000403e-03,-2.800000000000000405e-03,-2.879999999999999748e-03,-2.879999999999999748e-03,-2.820000000000000024e-03,-2.890000000000000208e-03,-2.870000000000000155e-03
1.499999999999999869e-04,5.700000000000000205e-03,5.550000000000000246e-03,-4.560000000000000685e-03,-1.215000000000000151e-03,5.775000000000000619e-03,-2.560000000000000209e-03,-2.605000000000000111e-03,-2.595000000000000084e-03,-2.540000000000000157e-03,-2.609999999999999907e-03,-2.609999999999999907e-03
1.300000000000000157e-04,5.839999999999999705e-03,5.709999999999999798e-03,-4.089999999999999886e-03,-1.850000000000000082e-03,5.940000000000000835e-03,-2.320000000000000014e-03,-2.330000000000000040e-03,-2.309999999999999987e-03,-2.260000000000000290e-03,-2.330000000000000040e-03,-2.350000000000000092e-03
1.700000000000000122e-04,4.565000000000000481e-03,4.395000000000000469e-03,-2.814999999999999794e-03,-1.850000000000000082e-03,4.664999999999999876e-03,-1.350000000000000071e-03,-1.260000000000000052e-03,-1.219999999999999947e-03,-1.170000000000000033e-03,-1.229999999999999974e-03,-1.265000000000000065e-03
2.100000000000000087e-04,3.289999999999999956e-03,3.080000000000000272e-03,-1.540000000000000136e-03,-1.850000000000000082e-03,3.390000000000000218e-03,-3.800000000000000209e-04,-1.900000000000000105e-04,-1.300000000000000157e-04,-8.000000000000000654e-05,-1.300000000000000157e-04,-1.799999999999999842e-04
2.100000000000000087e-04,2.015000000000000298e-03,1.804999999999999964e-03,-8.300000000000001170e-04,-1.284999999999999901e-03,2.115000000000000126e-03,-1.700000000000000122e-04,2.500000000000000120e-05,7.499999999999999343e-05,1.250000000000000026e-04,7.499999999999999343e-05,4.000000000000000327e-05
2.100000000000000087e-04,7.399999999999999894e-04,5.300000000000000891e-04,-1.200000000000000030e-04,-7.199999999999999369e-04,8.400000000000000348e-04,4.000000000000000327e-05,2.400000000000000061e-04,2.800000000000000297e-04,3.299999999999999982e-04,2.800000000000000297e-04,2.600000000000000314e-04
1.799999999999999842e-04,1.890000000000000187e-03,1.709999999999999932e-03,-1.394999999999999973e-03,-5.900000000000000296e-04,1.985000000000000219e-03,-6.900000000000000751e-04,-5.999999999999999474e-04,-5.850000000000000165e-04,-5.349999999999999938e-04,-5.900000000000000296e-04,-5.850000000000000165e-04
1.499999999999999869e-04,3.040000000000000167e-03,2.890000000000000208e-03,-2.670000000000000064e-03,-4.600000000000000139e-04,3.129999999999999970e-03,-1.420000000000000038e-03,-1.439999999999999874e-03,-1.449999999999999900e-03,-1.400000000000000203e-03,-1.459999999999999926e-03,-1.430000000000000064e-03
1.799999999999999842e-04,4.315000000000000259e-03,4.134999999999999787e-03,-3.860000000000000150e-03,-5.450000000000000200e-04,4.405000000000000061e-03,-2.100000000000000304e-03,-2.220000000000000185e-03,-2.230000000000000211e-03,-2.190000000000000106e-03,-2.250000000000000264e-03,-2.204999999999999929e-03
2.100000000000000087e-04,5.590000000000000351e-03,5.380000000000000233e-03,-5.049999999999999802e-03,-6.300000000000000261e-04,5.680000000000000153e-03,-2.780000000000000353e-03,-3.000000000000000062e-03,-3.010000000000000089e-03,-2.980000000000000010e-03,-3.040000000000000167e-03,-2.980000000000000010e-03
1.649999999999999991e-04,5.669999999999999693e-03,5.505000000000000344e-03,-4.545000000000000429e-03,-1.219999999999999947e-03,5.765000000000000159e-03,-2.535000000000000361e-03,-2.714999999999999965e-03,-2.710000000000000169e-03,-2.690000000000000117e-03,-2.740000000000000248e-03,-2.694999999999999913e-03
1.200000000000000030e-04,5.749999999999999903e-03,5.629999999999999588e-03,-4.040000000000000188e-03,-1.810000000000000194e-03,5.850000000000001033e-03,-2.289999999999999935e-03,-2.430000000000000302e-03,-2.410000000000000250e-03,-2.399999999999999790e-03,-2.439999999999999895e-03,-2.410000000000000250e-03
1.050000000000000044e-04,4.475000000000000679e-03,4.370000000000000620e-03,-2.765000000000000097e-03,-1.810000000000000194e-03,4.575000000000000074e-03,-1.360000000000000098e-03,-1.394999999999999973e-03,-1.365000000000000111e-03,-1.345000000000000058e-03,-1.380000000000000150e-03,-1.374999999999999920e-03
8.999999999999999212e-05,3.200000000000000153e-03,3.109999999999999917e-03,-1.490000000000000005e-03,-1.810000000000000194e-03,3.300000000000000416e-03,-4.299999999999999894e-04,-3.599999999999999685e-04,-3.200000000000000262e-04,-2.900000000000000017e-04,-3.200000000000000262e-04,-3.400000000000000244e-04
7.000000000000000742e-05,1.925000000000000062e-03,1.855000000000000095e-03,-7.500000000000000156e-04,-1.275000000000000092e-03,2.024999999999999890e-03,-2.200000000000000078e-04,-1.350000000000000017e-04,-1.150000000000000035e-04,-8.500000000000000611e-05,-1.150000000000000035e-04,-1.250000000000000026e-04
5.000000000000000240e-05,6.500000000000000786e-04,5.999999999999999474e-04,-1.000000000000000082e-05,-7.399999999999999894e-04,7.500000000000000156e-04,-1.000000000000000082e-05,8.999999999999999212e-05,8.999999999999999212e-05,1.200000000000000030e-04,8.999999999999999212e-05,8.999999999999999212e-05
5.000000000000000240e-05,1.740000000000000010e-03,1.689999999999999879e-03,-1.280000000000000105e-03,-5.800000000000000034e-04,1.860000000000000108e-03,-7.150000000000000322e-04,-7.249999999999999500e-04,-7.399999999999999894e-04,-7.150000000000000322e-04,-7.450000000000000025e-04,-7.150000000000000322e-04
5.000000000000000240e-05,2.830000000000000050e-03,2.780000000000000353e-03,-2.550000000000000183e-03,-4.200000000000000174e-04,2.970000000000000417e-03,-1.420000000000000038e-03,-1.540000000000000136e-03,-1.569999999999999998e-03,-1.550000000000000162e-03,-1.580000000000000024e-03,-1.520000000000000084e-03
8.999999999999999212e-05,4.105000000000000142e-03,4.014999999999999472e-03,-3.769999999999999914e-03,-4.750000000000000533e-04,4.245000000000000509e-03,-2.089999999999999844e-03,-2.295000000000000165e-03,-2.334999999999999836e-03,-2.320000000000000014e-03,-2.350000000000000092e-03,-2.280000000000000342e-03
1.300000000000000157e-04,5.380000000000000233e-03,5.250000000000000326e-03,-4.990000000000000512e-03,-5.300000000000000891e-04,5.520000000000000601e-03,-2.760000000000000300e-03,-3.050000000000000194e-03,-3.100000000000000325e-03,-3.089999999999999865e-03,-3.120000000000000377e-03,-3.040000000000000167e-03
1.350000000000000017e-04,5.560000000000000706e-03,5.425000000000000135e-03,-4.520000000000000580e-03,-1.154999999999999994e-03,5.675000000000000357e-03,-2.530000000000000131e-03,-2.785000000000000149e-03,-2.820000000000000024e-03,-2.820000000000000024e-03,-2.840000000000000076e-03,-2.775000000000000123e-03
1.400000000000000148e-04,5.740000000000000310e-03,5.600000000000000810e-03,-4.049999999999999781e-03,-1.780000000000000115e-03,5.830000000000000113e-03,-2.300000000000000395e-03,-2.520000000000000104e-03,-2.540000000000000157e-03,-2.550000000000000183e-03,-2.560000000000000209e-03,-2.510000000000000078e-03
8.500000000000000611e-05,4.465000000000000219e-03,4.380000000000000213e-03,-2.775000000000000123e-03,-1.780000000000000115e-03,4.555000000000000021e-03,-1.365000000000000111e-03,-1.465000000000000156e-03,-1.475000000000000182e-03,-1.475000000000000182e-03,-1.490000000000000005e-03,-1.459999999999999926e-03
3.000000000000000076e-05,3.190000000000000127e-03,3.160000000000000048e-03,-1.500000000000000031e-03,-1.780000000000000115e-03,3.280000000000000363e-03,-4.299999999999999894e-04,-4.100000000000000454e-04,-4.100000000000000454e-04,-4.000000000000000192e-04,-4.200000000000000174e-04,-4.100000000000000454e-04
0.000000000000000000e+00,1.915000000000000036e-03,1.915000000000000036e-03,-7.299999999999999632e-04,-1.275000000000000092e-03,2.004999999999999838e-03,-2.250000000000000209e-04,-1.950000000000000236e-04,-2.050000000000000227e-04,-1.950000000000000236e-04,-2.149999999999999947e-04,-1.950000000000000236e-04
-3.000000000000000076e-05,6.400000000000000524e-04,6.700000000000000226e-04,4.000000000000000327e-05,-7.700000000000000681e-04,7.299999999999999632e-04,-2.000000000000000164e-05,2.000000000000000164e-05,0.000000000000000000e+00,1.000000000000000082e-05,-1.000000000000000082e-05,2.000000000000000164e-05
2.500000000000000120e-05,1.775000000000000102e-03,1.750000000000000036e-03,-1.235000000000000204e-03,-6.450000000000000655e-04,1.880000000000000161e-03,-7.050000000000000060e-04,-7.650000000000000550e-04,-8.050000000000000515e-04,-7.950000000000000252e-04,-8.200000000000000908e-04,-7.650000000000000550e-04
8.000000000000000654e-05,2.910000000000000260e-03,2.830000000000000050e-03,-2.510000000000000078e-03,-5.200000000000000629e-04,3.030000000000000141e-03,-1.390000000000000176e-03,-1.550000000000000162e-03,-1.610000000000000103e-03,-1.600000000000000077e-03,-1.630000000000000155e-03,-1.550000000000000162e-03
8.500000000000000611e-05,4.185000000000000352e-03,4.099999999999999478e-03,-3.730000000000000242e-03,-5.750000000000000987e-04,4.304999999999999799e-03,-2.085000000000000048e-03,-2.325000000000000244e-03,-2.379999999999999737e-03,-2.379999999999999737e-03,-2.415000000000000046e-03,-2.325000000000000244e-03
8.999999999999999212e-05,5.460000000000000443e-03,5.370000000000000641e-03,-4.950000000000000407e-03,-6.300000000000000261e-04,5.579999999999999891e-03,-2.780000000000000353e-03,-3.100000000000000325e-03,-3.150000000000000022e-03,-3.160000000000000048e-03,-3.200000000000000153e-03,-3.100000000000000325e-03
9.500000000000000523e-05,5.539999999999999786e-03,5.445000000000000187e-03,-4.460000000000000422e-03,-1.195000000000000099e-03,5.655000000000000304e-03,-2.530000000000000131e-03,-2.809999999999999998e-03,-2.845000000000000306e-03,-2.854999999999999899e-03,-2.890000000000000208e-03,-2.814999999999999794e-03
1.000000000000000048e-04,5.619999999999999996e-03,5.520000000000000601e-03,-3.970000000000000438e-03,-1.760000000000000063e-03,5.730000000000000718e-03,-2.280000000000000342e-03,-2.520000000000000104e-03,-2.540000000000000157e-03,-2.550000000000000183e-03,-2.580000000000000262e-03,-2.530000000000000131e-03
7.499999999999999343e-05,4.344999999999999904e-03,4.270000000000000358e-03,-2.694999999999999913e-03,-1.760000000000000063e-03,4.454999999999999759e-03,-1.350000000000000071e-03,-1.469999999999999953e-03,-1.479999999999999979e-03,-1.485000000000000209e-03,-1.510000000000000057e-03,-1.479999999999999979e-03
5.000000000000000240e-05,3.070000000000000246e-03,3.020000000000000115e-03,-1.420000000000000038e-03,-1.760000000000000063e-03,3.180000000000000101e-03,-4.200000000000000174e-04,-4.200000000000000174e-04,-4.200000000000000174e-04,-4.200000000000000174e-04,-4.400000000000000157e-04,-4.299999999999999894e-04
