# ECG I-Ref,ECG II-Ref,ECG III-Ref,ECG AVR-Ref,ECG AVL-Ref,ECG AVF-Ref,ECG V1-Ref,ECG V2-Ref,ECG V3-Ref,ECG V4-Ref,ECG V5-Ref,ECG V6-Ref
0.000000000000000000e+00,0.000000000000000000e+00,0.000000000000000000e+00,0.000000000000000000e+00,0.000000000000000000e+00,0.000000000000000000e+00,0.000000000000000000e+00,0.000000000000000000e+00,0.000000000000000000e+00,0.000000000000000000e+00,0.000000000000000000e+00,0.000000000000000000e+00
3.000000000000000076e-05,2.000000000000000164e-05,-1.000000000000000082e-05,-2.500000000000000120e-05,2.000000000000000164e-05,5.000000000000000409e-06,-1.500000000000000038e-05,-2.000000000000000164e-05,-3.500000000000000371e-05,-2.500000000000000120e-05,-1.500000000000000038e-05,-1.500000000000000038e-05
6.000000000000000152e-05,4.000000000000000327e-05,-2.000000000000000164e-05,-5.000000000000000240e-05,4.000000000000000327e-05,1.000000000000000082e-05,-3.000000000000000076e-05,-4.000000000000000327e-05,-7.000000000000000742e-05,-5.000000000000000240e-05,-3.000000000000000076e-05,-3.000000000000000076e-05
6.000000000000000152e-05,3.000000000000000076e-05,-3.000000000000000076e-05,-4.499999999999999606e-05,4.499999999999999606e-05,0.000000000000000000e+00,-2.000000000000000164e-05,-2.500000000000000120e-05,-5.000000000000000240e-05,-5.500000000000000196e-05,-2.500000000000000120e-05,-3.500000000000000371e-05
6.000000000000000152e-05,2.000000000000000164e-05,-4.000000000000000327e-05,-4.000000000000000327e-05,5.000000000000000240e-05,-1.000000000000000082e-05,-1.000000000000000082e-05,-1.000000000000000082e-05,-3.000000000000000076e-05,-6.000000000000000152e-05,-2.000000000000000164e-05,-4.000000000000000327e-05
6.000000000000000152e-05,3.000000000000000076e-05,-3.000000000000000076e-05,-4.499999999999999606e-05,4.499999999999999606e-05,0.000000000000000000e+00,5.000000000000000409e-06,5.000000000000000409e-06,-1.000000000000000082e-05,-5.000000000000000240e-05,0.000000000000000000e+00,-2.500000000000000120e-05
6.000000000000000152e-05,4.000000000000000327e-05,-2.000000000000000164e-05,-5.000000000000000240e-05,4.000000000000000327e-05,1.000000000000000082e-05,2.000000000000000164e-05,2.000000000000000164e-05,1.000000000000000082e-05,-4.000000000000000327e-05,2.000000000000000164e-05,-1.000000000000000082e-05
4.499999999999999606e-05,2.000000000000000164e-05,-2.500000000000000120e-05,-3.500000000000000371e-05,4.000000000000000327e-05,-5.000000000000000409e-06,2.500000000000000120e-05,2.500000000000000120e-05,1.000000000000000082e-05,-1.000000000000000082e-05,3.500000000000000371e-05,5.000000000000000409e-06
3.000000000000000076e-05,0.000000000000000000e+00,-3.000000000000000076e-05,-2.000000000000000164e-05,4.000000000000000327e-05,-2.000000000000000164e-05,3.000000000000000076e-05,3.000000000000000076e-05,1.000000000000000082e-05,2.000000000000000164e-05,5.000000000000000240e-05,2.000000000000000164e-05
4.000000000000000327e-05,0.000000000000000000e+00,-4.000000000000000327e-05,-2.000000000000000164e-05,4.000000000000000327e-05,-2.000000000000000164e-05,1.500000000000000038e-05,5.000000000000000409e-06,-1.000000000000000082e-05,0.000000000000000000e+00,2.000000000000000164e-05,5.000000000000000409e-06
5.000000000000000240e-05,0.000000000000000000e+00,-5.000000000000000240e-05,-2.000000000000000164e-05,4.000000000000000327e-05,-2.000000000000000164e-05,0.000000000000000000e+00,-2.000000000000000164e-05,-3.000000000000000076e-05,-2.000000000000000164e-05,-1.000000000000000082e-05,-1.000000000000000082e-05
4.000000000000000327e-05,0.000000000000000000e+00,-4.000000000000000327e-05,-2.000000000000000164e-05,4.000000000000000327e-05,-2.000000000000000164e-05,-1.500000000000000038e-05,-2.500000000000000120e-05,-4.000000000000000327e-05,-3.500000000000000371e-05,-2.500000000000000120e-05,-2.000000000000000164e-05
3.000000000000000076e-05,0.000000000000000000e+00,-3.000000000000000076e-05,-2.000000000000000164e-05,4.000000000000000327e-05,-2.000000000000000164e-05,-3.000000000000000076e-05,-3.000000000000000076e-05,-5.000000000000000240e-05,-5.000000000000000240e-05,-4.000000000000000327e-05,-3.000000000000000076e-05
5.000000000000000240e-05,2.000000000000000164e-05,-3.000000000000000076e-05,-4.000000000000000327e-05,5.000000000000000240e-05,-1.000000000000000082e-05,-2.500000000000000120e-05,-2.500000000000000120e-05,-4.499999999999999606e-05,-5.500000000000000196e-05,-3.000000000000000076e-05,-4.000000000000000327e-05
7.000000000000000742e-05,4.000000000000000327e-05,-3.000000000000000076e-05,-6.000000000000000152e-05,6.000000000000000152e-05,0.000000000000000000e+00,-2.000000000000000164e-05,-2.000000000000000164e-05,-4.000000000000000327e-05,-6.000000000000000152e-05,-2.000000000000000164e-05,-5.000000000000000240e-05
6.500000000000000786e-05,5.000000000000000240e-05,-1.500000000000000038e-05,-6.000000000000000152e-05,4.499999999999999606e-05,1.500000000000000038e-05,0.000000000000000000e+00,-1.000000000000000082e-05,-2.500000000000000120e-05,-5.500000000000000196e-05,-1.000000000000000082e-05,-4.000000000000000327e-05
6.000000000000000152e-05,6.000000000000000152e-05,0.000000000000000000e+00,-6.000000000000000152e-05,3.000000000000000076e-05,3.000000000000000076e-05,2.000000000000000164e-05,0.000000000000000000e+00,-1.000000000000000082e-05,-5.000000000000000240e-05,0.000000000000000000e+00,-3.000000000000000076e-05
4.000000000000000327e-05,1.500000000000000038e-05,-2.500000000000000120e-05,-3.000000000000000076e-05,3.500000000000000371e-05,-5.000000000000000409e-06,2.500000000000000120e-05,5.000000000000000409e-06,-5.000000000000000409e-06,-2.500000000000000120e-05,1.000000000000000082e-05,-1.000000000000000082e-05
2.000000000000000164e-05,-3.000000000000000076e-05,-5.000000000000000240e-05,0.000000000000000000e+00,4.000000000000000327e-05,-4.000000000000000327e-05,3.000000000000000076e-05,1.000000000000000082e-05,0.000000000000000000e+00,0.000000000000000000e+00,2.000000000000000164e-05,1.000000000000000082e-05
3.500000000000000371e-05,-2.500000000000000120e-05,-6.000000000000000152e-05,-1.000000000000000082e-05,5.000000000000000240e-05,-4.000000000000000327e-05,1.500000000000000038e-05,0.000000000000000000e+00,-1.000000000000000082e-05,-1.000000000000000082e-05,0.000000000000000000e+00,5.000000000000000409e-06
5.000000000000000240e-05,-2.000000000000000164e-05,-7.000000000000000742e-05,-2.000000000000000164e-05,6.000000000000000152e-05,-4.000000000000000327e-05,0.000000000000000000e+00,-1.000000000000000082e-05,-2.000000000000000164e-05,-2.000000000000000164e-05,-2.000000000000000164e-05,0.000000000000000000e+00
6.000000000000000152e-05,0.000000000000000000e+00,-6.000000000000000152e-05,-3.000000000000000076e-05,6.000000000000000152e-05,-3.000000000000000076e-05,-5.000000000000000409e-06,-2.000000000000000164e-05,-4.000000000000000327e-05,-3.500000000000000371e-05,-3.000000000000000076e-05,-1.000000000000000082e-05
7.000000000000000742e-05,2.000000000000000164e-05,-5.000000000000000240e-05,-4.000000000000000327e-05,6.000000000000000152e-05,-2.000000000000000164e-05,-1.000000000000000082e-05,-3.000000000000000076e-05,-6.000000000000000152e-05,-5.000000000000000240e-05,-4.000000000000000327e-05,-2.000000000000000164e-05
7.000000000000000742e-05,3.000000000000000076e-05,-4.000000000000000327e-05,-5.000000000000000240e-05,6.000000000000000152e-05,-1.000000000000000082e-05,-1.500000000000000038e-05,-2.500000000000000120e-05,-5.000000000000000240e-05,-6.000000000000000152e-05,-4.000000000000000327e-05,-3.500000000000000371e-05
7.000000000000000742e-05,4.000000000000000327e-05,-3.000000000000000076e-05,-6.000000000000000152e-05,6.000000000000000152e-05,0.000000000000000000e+00,-2.000000000000000164e-05,-2.000000000000000164e-05,-4.000000000000000327e-05,-7.000000000000000742e-05,-4.000000000000000327e-05,-5.000000000000000240e-05
7.499999999999999343e-05,4.000000000000000327e-05,-3.500000000000000371e-05,-6.000000000000000152e-05,6.000000000000000152e-05,0.000000000000000000e+00,0.000000000000000000e+00,-5.000000000000000409e-06,-2.500000000000000120e-05,-6.000000000000000152e-05,-2.000000000000000164e-05,-3.000000000000000076e-05
8.000000000000000654e-05,4.000000000000000327e-05,-4.000000000000000327e-05,-6.000000000000000152e-05,6.000000000000000152e-05,0.000000000000000000e+00,2.000000000000000164e-05,1.000000000000000082e-05,-1.000000000000000082e-05,-5.000000000000000240e-05,0.000000000000000000e+00,-1.000000000000000082e-05
5.000000000000000240e-05,1.500000000000000038e-05,-3.500000000000000371e-05,-3.000000000000000076e-05,4.000000000000000327e-05,-1.000000000000000082e-05,2.500000000000000120e-05,1.000000000000000082e-05,-1.000000000000000082e-05,-2.500000000000000120e-05,5.000000000000000409e-06,-5.000000000000000409e-06
2.000000000000000164e-05,-1.000000000000000082e-05,-3.000000000000000076e-05,0.000000000000000000e+00,2.000000000000000164e-05,-2.000000000000000164e-05,3.000000000000000076e-05,1.000000000000000082e-05,-1.000000000000000082e-05,0.000000000000000000e+00,1.000000000000000082e-05,0.000000000000000000e+00
2.000000000000000164e-05,-1.500000000000000038e-05,-3.500000000000000371e-05,0.000000000000000000e+00,2.500000000000000120e-05,-2.500000000000000120e-05,1.500000000000000038e-05,5.000000000000000409e-06,-1.500000000000000038e-05,-5.000000000000000409e-06,-5.000000000000000409e-06,5.000000000000000409e-06
2.000000000000000164e-05,-2.000000000000000164e-05,-4.000000000000000327e-05,0.000000000000000000e+00,3.000000000000000076e-05,-3.000000000000000076e-05,0.000000000000000000e+00,0.000000000000000000e+00,-2.000000000000000164e-05,-1.000000000000000082e-05,-2.000000000000000164e-05,1.000000000000000082e-05
3.000000000000000076e-05,-1.000000000000000082e-05,-4.000000000000000327e-05,-1.000000000000000082e-05,3.500000000000000371e-05,-2.500000000000000120e-05,-1.500000000000000038e-05,-2.500000000000000120e-05,-5.000000000000000240e-05,-3.500000000000000371e-05,-3.500000000000000371e-05,-1.000000000000000082e-05
4.000000000000000327e-05,0.000000000000000000e+00,-4.000000000000000327e-05,-2.000000000000000164e-05,4.000000000000000327e-05,-2.000000000000000164e-05,-3.000000000000000076e-05,-5.000000000000000240e-05,-8.000000000000000654e-05,-6.000000000000000152e-05,-5.000000000000000240e-05,-3.000000000000000076e-05
5.500000000000000196e-05,1.000000000000000082e-05,-4.499999999999999606e-05,-3.000000000000000076e-05,5.000000000000000240e-05,-2.000000000000000164e-05,-1.500000000000000038e-05,-3.000000000000000076e-05,-6.500000000000000786e-05,-7.000000000000000742e-05,-5.000000000000000240e-05,-3.500000000000000371e-05
7.000000000000000742e-05,2.000000000000000164e-05,-5.000000000000000240e-05,-4.000000000000000327e-05,6.000000000000000152e-05,-2.000000000000000164e-05,0.000000000000000000e+00,-1.000000000000000082e-05,-5.000000000000000240e-05,-8.000000000000000654e-05,-5.000000000000000240e-05,-4.000000000000000327e-05
6.500000000000000786e-05,3.000000000000000076e-05,-3.500000000000000371e-05,-4.499999999999999606e-05,5.000000000000000240e-05,-5.000000000000000409e-06,5.000000000000000409e-06,-5.000000000000000409e-06,-4.000000000000000327e-05,-7.499999999999999343e-05,-3.500000000000000371e-05,-3.500000000000000371e-05
6.000000000000000152e-05,4.000000000000000327e-05,-2.000000000000000164e-05,-5.000000000000000240e-05,4.000000000000000327e-05,1.000000000000000082e-05,1.000000000000000082e-05,0.000000000000000000e+00,-3.000000000000000076e-05,-7.000000000000000742e-05,-2.000000000000000164e-05,-3.000000000000000076e-05
4.000000000000000327e-05,3.000000000000000076e-05,-1.000000000000000082e-05,-3.500000000000000371e-05,2.500000000000000120e-05,1.000000000000000082e-05,1.500000000000000038e-05,0.000000000000000000e+00,-2.500000000000000120e-05,-4.499999999999999606e-05,-1.500000000000000038e-05,-1.500000000000000038e-05
2.000000000000000164e-05,2.000000000000000164e-05,0.000000000000000000e+00,-2.000000000000000164e-05,1.000000000000000082e-05,1.000000000000000082e-05,2.000000000000000164e-05,0.000000000000000000e+00,-2.000000000000000164e-05,-2.000000000000000164e-05,-1.000000000000000082e-05,0.000000000000000000e+00
3.000000000000000076e-05,0.000000000000000000e+00,-3.000000000000000076e-05,-1.500000000000000038e-05,3.000000000000000076e-05,-1.500000000000000038e-05,5.000000000000000409e-06,-1.000000000000000082e-05,-3.000000000000000076e-05,-2.000000000000000164e-05,-2.000000000000000164e-05,0.000000000000000000e+00
4.000000000000000327e-05,-2.000000000000000164e-05,-6.000000000000000152e-05,-1.000000000000000082e-05,5.000000000000000240e-05,-4.000000000000000327e-05,-1.000000000000000082e-05,-2.000000000000000164e-05,-4.000000000000000327e-05,-2.000000000000000164e-05,-3.000000000000000076e-05,0.000000000000000000e+00
5.000000000000000240e-05,0.000000000000000000e+00,-5.000000000000000240e-05,-2.500000000000000120e-05,5.000000000000000240e-05,-2.500000000000000120e-05,-2.500000000000000120e-05,-3.500000000000000371e-05,-6.500000000000000786e-05,-5.000000000000000240e-05,-5.000000000000000240e-05,-2.000000000000000164e-05
6.000000000000000152e-05,2.000000000000000164e-05,-4.000000000000000327e-05,-4.000000000000000327e-05,5.000000000000000240e-05,-1.000000000000000082e-05,-4.000000000000000327e-05,-5.000000000000000240e-05,-8.999999999999999212e-05,-8.000000000000000654e-05,-7.000000000000000742e-05,-4.000000000000000327e-05
6.000000000000000152e-05,2.500000000000000120e-05,-3.500000000000000371e-05,-4.000000000000000327e-05,4.499999999999999606e-05,-5.000000000000000409e-06,-2.500000000000000120e-05,-4.000000000000000327e-05,-8.000000000000000654e-05,-8.000000000000000654e-05,-5.500000000000000196e-05,-3.500000000000000371e-05
6.000000000000000152e-05,3.000000000000000076e-05,-3.000000000000000076e-05,-4.000000000000000327e-05,4.000000000000000327e-05,0.000000000000000000e+00,-1.000000000000000082e-05,-3.000000000000000076e-05,-7.000000000000000742e-05,-8.000000000000000654e-05,-4.000000000000000327e-05,-3.000000000000000076e-05
6.000000000000000152e-05,2.500000000000000120e-05,-3.500000000000000371e-05,-4.000000000000000327e-05,4.499999999999999606e-05,-5.000000000000000409e-06,0.000000000000000000e+00,-1.500000000000000038e-05,-5.000000000000000240e-05,-7.499999999999999343e-05,-3.500000000000000371e-05,-3.000000000000000076e-05
6.000000000000000152e-05,2.000000000000000164e-05,-4.000000000000000327e-05,-4.000000000000000327e-05,5.000000000000000240e-05,-1.000000000000000082e-05,1.000000000000000082e-05,0.000000000000000000e+00,-3.000000000000000076e-05,-7.000000000000000742e-05,-3.000000000000000076e-05,-3.000000000000000076e-05
4.499999999999999606e-05,0.000000000000000000e+00,-4.499999999999999606e-05,-2.000000000000000164e-05,4.499999999999999606e-05,-2.500000000000000120e-05,2.000000000000000164e-05,5.000000000000000409e-06,-1.500000000000000038e-05,-4.499999999999999606e-05,-2.000000000000000164e-05,-1.500000000000000038e-05
3.000000000000000076e-05,-2.000000000000000164e-05,-5.000000000000000240e-05,0.000000000000000000e+00,4.000000000000000327e-05,-4.000000000000000327e-05,3.000000000000000076e-05,1.000000000000000082e-05,0.000000000000000000e+00,-2.000000000000000164e-05,-1.000000000000000082e-05,0.000000000000000000e+00
4.000000000000000327e-05,-2.000000000000000164e-05,-6.000000000000000152e-05,-1.000000000000000082e-05,5.000000000000000240e-05,-4.000000000000000327e-05,1.000000000000000082e-05,-1.000000000000000082e-05,-3.000000000000000076e-05,-2.000000000000000164e-05,-2.000000000000000164e-05,0.000000000000000000e+00
5.000000000000000240e-05,-2.000000000000000164e-05,-7.000000000000000742e-05,-2.000000000000000164e-05,6.000000000000000152e-05,-4.000000000000000327e-05,-1.000000000000000082e-05,-3.000000000000000076e-05,-6.000000000000000152e-05,-2.000000000000000164e-05,-3.000000000000000076e-05,0.000000000000000000e+00
5.500000000000000196e-05,-5.000000000000000409e-06,-6.000000000000000152e-05,-3.000000000000000076e-05,6.000000000000000152e-05,-3.000000000000000076e-05,-2.000000000000000164e-05,-4.499999999999999606e-05,-7.499999999999999343e-05,-6.000000000000000152e-05,-6.500000000000000786e-05,-3.000000000000000076e-05
6.000000000000000152e-05,1.000000000000000082e-05,-5.000000000000000240e-05,-4.000000000000000327e-05,6.000000000000000152e-05,-2.000000000000000164e-05,-3.000000000000000076e-05,-6.000000000000000152e-05,-8.999999999999999212e-05,-1.000000000000000048e-04,-1.000000000000000048e-04,-6.000000000000000152e-05
6.000000000000000152e-05,2.000000000000000164e-05,-4.000000000000000327e-05,-4.000000000000000327e-05,5.000000000000000240e-05,-1.000000000000000082e-05,-1.000000000000000082e-05,-3.500000000000000371e-05,-7.000000000000000742e-05,-8.999999999999999212e-05,-7.499999999999999343e-05,-5.000000000000000240e-05
6.000000000000000152e-05,3.000000000000000076e-05,-3.000000000000000076e-05,-4.000000000000000327e-05,4.000000000000000327e-05,0.000000000000000000e+00,1.000000000000000082e-05,-1.000000000000000082e-05,-5.000000000000000240e-05,-8.000000000000000654e-05,-5.000000000000000240e-05,-4.000000000000000327e-05
6.000000000000000152e-05,2.500000000000000120e-05,-3.500000000000000371e-05,-4.000000000000000327e-05,4.499999999999999606e-05,-5.000000000000000409e-06,1.000000000000000082e-05,-5.000000000000000409e-06,-4.000000000000000327e-05,-7.000000000000000742e-05,-4.000000000000000327e-05,-3.000000000000000076e-05
6.000000000000000152e-05,2.000000000000000164e-05,-4.000000000000000327e-05,-4.000000000000000327e-05,5.000000000000000240e-05,-1.000000000000000082e-05,1.000000000000000082e-05,0.000000000000000000e+00,-3.000000000000000076e-05,-6.000000000000000152e-05,-3.000000000000000076e-05,-2.000000000000000164e-05
5.000000000000000240e-05,0.000000000000000000e+00,-5.000000000000000240e-05,-2.500000000000000120e-05,5.000000000000000240e-05,-2.500000000000000120e-05,2.000000000000000164e-05,5.000000000000000409e-06,-2.000000000000000164e-05,-4.000000000000000327e-05,-2.000000000000000164e-05,0.000000000000000000e+00
4.000000000000000327e-05,-2.000000000000000164e-05,-6.000000000000000152e-05,-1.000000000000000082e-05,5.000000000000000240e-05,-4.000000000000000327e-05,3.000000000000000076e-05,1.000000000000000082e-05,-1.000000000000000082e-05,-2.000000000000000164e-05,-1.000000000000000082e-05,2.000000000000000164e-05
4.000000000000000327e-05,-1.000000000000000082e-05,-5.000000000000000240e-05,-1.500000000000000038e-05,4.499999999999999606e-05,-3.000000000000000076e-05,5.000000000000000409e-06,-1.000000000000000082e-05,-3.500000000000000371e-05,-3.000000000000000076e-05,-3.500000000000000371e-05,5.000000000000000409e-06
4.000000000000000327e-05,0.000000000000000000e+00,-4.000000000000000327e-05,-2.000000000000000164e-05,4.000000000000000327e-05,-2.000000000000000164e-05,-2.000000000000000164e-05,-3.000000000000000076e-05,-6.000000000000000152e-05,-4.000000000000000327e-05,-6.000000000000000152e-05,-1.000000000000000082e-05
4.499999999999999606e-05,5.000000000000000409e-06,-4.000000000000000327e-05,-2.500000000000000120e-05,4.499999999999999606e-05,-2.000000000000000164e-05,-2.000000000000000164e-05,-4.000000000000000327e-05,-7.000000000000000742e-05,-6.000000000000000152e-05,-7.499999999999999343e-05,-2.500000000000000120e-05
5.000000000000000240e-05,1.000000000000000082e-05,-4.000000000000000327e-05,-3.000000000000000076e-05,5.000000000000000240e-05,-2.000000000000000164e-05,-2.000000000000000164e-05,-5.000000000000000240e-05,-8.000000000000000654e-05,-8.000000000000000654e-05,-8.999999999999999212e-05,-4.000000000000000327e-05
5.500000000000000196e-05,1.000000000000000082e-05,-4.499999999999999606e-05,-3.500000000000000371e-05,5.500000000000000196e-05,-2.000000000000000164e-05,-2.000000000000000164e-05,-4.000000000000000327e-05,-6.500000000000000786e-05,-8.999999999999999212e-05,-8.999999999999999212e-05,-5.000000000000000240e-05
6.000000000000000152e-05,1.000000000000000082e-05,-5.000000000000000240e-05,-4.000000000000000327e-05,6.000000000000000152e-05,-2.000000000000000164e-05,-2.000000000000000164e-05,-3.000000000000000076e-05,-5.000000000000000240e-05,-1.000000000000000048e-04,-8.999999999999999212e-05,-6.000000000000000152e-05
7.499999999999999343e-05,3.500000000000000371e-05,-4.000000000000000327e-05,-6.000000000000000152e-05,6.000000000000000152e-05,0.000000000000000000e+00,5.000000000000000409e-06,-5.000000000000000409e-06,-2.500000000000000120e-05,-7.000000000000000742e-05,-5.000000000000000240e-05,-3.500000000000000371e-05
8.999999999999999212e-05,6.000000000000000152e-05,-3.000000000000000076e-05,-8.000000000000000654e-05,6.000000000000000152e-05,2.000000000000000164e-05,3.000000000000000076e-05,2.000000000000000164e-05,0.000000000000000000e+00,-4.000000000000000327e-05,-1.000000000000000082e-05,-1.000000000000000082e-05
7.499999999999999343e-05,3.500000000000000371e-05,-4.000000000000000327e-05,-6.000000000000000152e-05,6.000000000000000152e-05,0.000000000000000000e+00,4.000000000000000327e-05,2.500000000000000120e-05,1.000000000000000082e-05,-2.000000000000000164e-05,0.000000000000000000e+00,5.000000000000000409e-06
6.000000000000000152e-05,1.000000000000000082e-05,-5.000000000000000240e-05,-4.000000000000000327e-05,6.000000000000000152e-05,-2.000000000000000164e-05,5.000000000000000240e-05,3.000000000000000076e-05,2.000000000000000164e-05,0.000000000000000000e+00,1.000000000000000082e-05,2.000000000000000164e-05
6.000000000000000152e-05,2.500000000000000120e-05,-3.500000000000000371e-05,-4.499999999999999606e-05,5.000000000000000240e-05,-5.000000000000000409e-06,4.000000000000000327e-05,2.500000000000000120e-05,5.000000000000000409e-06,0.000000000000000000e+00,-5.000000000000000409e-06,2.500000000000000120e-05
6.000000000000000152e-05,4.000000000000000327e-05,-2.000000000000000164e-05,-5.000000000000000240e-05,4.000000000000000327e-05,1.000000000000000082e-05,3.000000000000000076e-05,2.000000000000000164e-05,-1.000000000000000082e-05,0.000000000000000000e+00,-2.000000000000000164e-05,3.000000000000000076e-05
7.000000000000000742e-05,6.000000000000000152e-05,-1.000000000000000082e-05,-6.500000000000000786e-05,4.000000000000000327e-05,2.500000000000000120e-05,1.500000000000000038e-05,-5.000000000000000409e-06,-2.500000000000000120e-05,-2.000000000000000164e-05,-4.000000000000000327e-05,1.000000000000000082e-05
8.000000000000000654e-05,8.000000000000000654e-05,0.000000000000000000e+00,-8.000000000000000654e-05,4.000000000000000327e-05,4.000000000000000327e-05,0.000000000000000000e+00,-3.000000000000000076e-05,-4.000000000000000327e-05,-4.000000000000000327e-05,-6.000000000000000152e-05,-1.000000000000000082e-05
8.000000000000000654e-05,1.000000000000000048e-04,2.000000000000000164e-05,-8.999999999999999212e-05,3.000000000000000076e-05,6.000000000000000152e-05,1.000000000000000082e-05,-2.000000000000000164e-05,-3.000000000000000076e-05,-5.000000000000000240e-05,-5.500000000000000196e-05,-2.500000000000000120e-05
8.000000000000000654e-05,1.200000000000000030e-04,4.000000000000000327e-05,-1.000000000000000048e-04,2.000000000000000164e-05,8.000000000000000654e-05,2.000000000000000164e-05,-1.000000000000000082e-05,-2.000000000000000164e-05,-6.000000000000000152e-05,-5.000000000000000240e-05,-4.000000000000000327e-05
8.000000000000000654e-05,1.100000000000000039e-04,3.000000000000000076e-05,-9.500000000000000523e-05,2.500000000000000120e-05,7.000000000000000742e-05,3.500000000000000371e-05,1.500000000000000038e-05,-1.000000000000000082e-05,-4.499999999999999606e-05,-2.500000000000000120e-05,-1.500000000000000038e-05
8.000000000000000654e-05,1.000000000000000048e-04,2.000000000000000164e-05,-8.999999999999999212e-05,3.000000000000000076e-05,6.000000000000000152e-05,5.000000000000000240e-05,4.000000000000000327e-05,0.000000000000000000e+00,-3.000000000000000076e-05,0.000000000000000000e+00,1.000000000000000082e-05
6.000000000000000152e-05,7.000000000000000742e-05,1.000000000000000082e-05,-6.500000000000000786e-05,2.500000000000000120e-05,4.000000000000000327e-05,6.500000000000000786e-05,4.499999999999999606e-05,1.500000000000000038e-05,-1.000000000000000082e-05,5.000000000000000409e-06,1.500000000000000038e-05
4.000000000000000327e-05,4.000000000000000327e-05,0.000000000000000000e+00,-4.000000000000000327e-05,2.000000000000000164e-05,2.000000000000000164e-05,8.000000000000000654e-05,5.000000000000000240e-05,3.000000000000000076e-05,1.000000000000000082e-05,1.000000000000000082e-05,2.000000000000000164e-05
5.500000000000000196e-05,6.000000000000000152e-05,5.000000000000000409e-06,-6.000000000000000152e-05,3.000000000000000076e-05,3.000000000000000076e-05,7.000000000000000742e-05,4.499999999999999606e-05,2.500000000000000120e-05,1.000000000000000082e-05,-1.000000000000000082e-05,2.000000000000000164e-05
7.000000000000000742e-05,8.000000000000000654e-05,1.000000000000000082e-05,-8.000000000000000654e-05,4.000000000000000327e-05,4.000000000000000327e-05,6.000000000000000152e-05,4.000000000000000327e-05,2.000000000000000164e-05,1.000000000000000082e-05,-3.000000000000000076e-05,2.000000000000000164e-05
7.499999999999999343e-05,8.999999999999999212e-05,1.500000000000000038e-05,-8.500000000000000611e-05,3.500000000000000371e-05,5.000000000000000240e-05,6.000000000000000152e-05,3.000000000000000076e-05,1.000000000000000082e-05,-1.000000000000000082e-05,-4.499999999999999606e-05,5.000000000000000409e-06
8.000000000000000654e-05,1.000000000000000048e-04,2.000000000000000164e-05,-8.999999999999999212e-05,3.000000000000000076e-05,6.000000000000000152e-05,6.000000000000000152e-05,2.000000000000000164e-05,0.000000000000000000e+00,-3.000000000000000076e-05,-6.000000000000000152e-05,-1.000000000000000082e-05
9.500000000000000523e-05,1.250000000000000026e-04,3.000000000000000076e-05,-1.100000000000000039e-04,3.000000000000000076e-05,8.000000000000000654e-05,5.500000000000000196e-05,2.500000000000000120e-05,5.000000000000000409e-06,-3.500000000000000371e-05,-4.499999999999999606e-05,-1.000000000000000082e-05
1.100000000000000039e-04,1.499999999999999869e-04,4.000000000000000327e-05,-1.300000000000000157e-04,3.000000000000000076e-05,1.000000000000000048e-04,5.000000000000000240e-05,3.000000000000000076e-05,1.000000000000000082e-05,-4.000000000000000327e-05,-3.000000000000000076e-05,-1.000000000000000082e-05
1.250000000000000026e-04,1.550000000000000000e-04,3.000000000000000076e-05,-1.400000000000000148e-04,4.499999999999999606e-05,9.500000000000000523e-05,5.500000000000000196e-05,4.000000000000000327e-05,2.500000000000000120e-05,-2.000000000000000164e-05,-5.000000000000000409e-06,1.000000000000000082e-05
1.400000000000000148e-04,1.600000000000000131e-04,2.000000000000000164e-05,-1.499999999999999869e-04,6.000000000000000152e-05,8.999999999999999212e-05,6.000000000000000152e-05,5.000000000000000240e-05,4.000000000000000327e-05,0.000000000000000000e+00,2.000000000000000164e-05,3.000000000000000076e-05
1.200000000000000030e-04,1.499999999999999869e-04,3.000000000000000076e-05,-1.350000000000000017e-04,4.499999999999999606e-05,8.999999999999999212e-05,5.000000000000000240e-05,4.499999999999999606e-05,4.499999999999999606e-05,2.500000000000000120e-05,3.500000000000000371e-05,5.500000000000000196e-05
1.000000000000000048e-04,1.400000000000000148e-04,4.000000000000000327e-05,-1.200000000000000030e-04,3.000000000000000076e-05,8.999999999999999212e-05,4.000000000000000327e-05,4.000000000000000327e-05,5.000000000000000240e-05,5.000000000000000240e-05,5.000000000000000240e-05,8.000000000000000654e-05
8.500000000000000611e-05,1.000000000000000048e-04,1.500000000000000038e-05,-8.999999999999999212e-05,3.500000000000000371e-05,5.500000000000000196e-05,2.000000000000000164e-05,2.000000000000000164e-05,3.000000000000000076e-05,4.499999999999999606e-05,3.000000000000000076e-05,7.000000000000000742e-05
7.000000000000000742e-05,6.000000000000000152e-05,-1.000000000000000082e-05,-6.000000000000000152e-05,4.000000000000000327e-05,2.000000000000000164e-05,0.000000000000000000e+00,0.000000000000000000e+00,1.000000000000000082e-05,4.000000000000000327e-05,1.000000000000000082e-05,6.000000000000000152e-05
1.100000000000000039e-04,8.999999999999999212e-05,-2.000000000000000164e-05,-1.000000000000000048e-04,7.000000000000000742e-05,3.000000000000000076e-05,-2.500000000000000120e-05,-2.000000000000000164e-05,-2.000000000000000164e-05,0.000000000000000000e+00,-2.500000000000000120e-05,4.000000000000000327e-05
1.499999999999999869e-04,1.200000000000000030e-04,-3.000000000000000076e-05,-1.400000000000000148e-04,1.000000000000000048e-04,4.000000000000000327e-05,-5.000000000000000240e-05,-4.000000000000000327e-05,-5.000000000000000240e-05,-4.000000000000000327e-05,-6.000000000000000152e-05,2.000000000000000164e-05
1.550000000000000000e-04,1.300000000000000157e-04,-2.500000000000000120e-05,-1.450000000000000009e-04,9.500000000000000523e-05,5.000000000000000240e-05,-4.499999999999999606e-05,-4.000000000000000327e-05,-4.499999999999999606e-05,-5.500000000000000196e-05,-5.500000000000000196e-05,5.000000000000000409e-06
1.600000000000000131e-04,1.400000000000000148e-04,-2.000000000000000164e-05,-1.499999999999999869e-04,8.999999999999999212e-05,6.000000000000000152e-05,-4.000000000000000327e-05,-4.000000000000000327e-05,-4.000000000000000327e-05,-7.000000000000000742e-05,-5.000000000000000240e-05,-1.000000000000000082e-05
1.550000000000000000e-04,1.400000000000000148e-04,-1.500000000000000038e-05,-1.450000000000000009e-04,8.500000000000000611e-05,6.000000000000000152e-05,-3.000000000000000076e-05,-2.500000000000000120e-05,-2.000000000000000164e-05,-5.000000000000000240e-05,-2.500000000000000120e-05,1.000000000000000082e-05
1.499999999999999869e-04,1.400000000000000148e-04,-1.000000000000000082e-05,-1.400000000000000148e-04,8.000000000000000654e-05,6.000000000000000152e-05,-2.000000000000000164e-05,-1.000000000000000082e-05,0.000000000000000000e+00,-3.000000000000000076e-05,0.000000000000000000e+00,3.000000000000000076e-05
1.450000000000000009e-04,1.000000000000000048e-04,-4.499999999999999606e-05,-1.200000000000000030e-04,9.500000000000000523e-05,2.500000000000000120e-05,-2.000000000000000164e-05,-1.000000000000000082e-05,5.000000000000000409e-06,-5.000000000000000409e-06,5.000000000000000409e-06,4.499999999999999606e-05
1.400000000000000148e-04,6.000000000000000152e-05,-8.000000000000000654e-05,-1.000000000000000048e-04,1.100000000000000039e-04,-1.000000000000000082e-05,-2.000000000000000164e-05,-1.000000000000000082e-05,1.000000000000000082e-05,2.000000000000000164e-05,1.000000000000000082e-05,6.000000000000000152e-05
1.200000000000000030e-04,6.000000000000000152e-05,-6.000000000000000152e-05,-8.999999999999999212e-05,8.999999999999999212e-05,0.000000000000000000e+00,-3.000000000000000076e-05,-2.000000000000000164e-05,-5.000000000000000409e-06,1.500000000000000038e-05,-5.000000000000000409e-06,5.000000000000000240e-05
1.000000000000000048e-04,6.000000000000000152e-05,-4.000000000000000327e-05,-8.000000000000000654e-05,7.000000000000000742e-05,1.000000000000000082e-05,-4.000000000000000327e-05,-3.000000000000000076e-05,-2.000000000000000164e-05,1.000000000000000082e-05,-2.000000000000000164e-05,4.000000000000000327e-05
1.100000000000000039e-04,6.500000000000000786e-05,-4.499999999999999606e-05,-8.999999999999999212e-05,8.000000000000000654e-05,1.000000000000000082e-05,-5.500000000000000196e-05,-5.500000000000000196e-05,-5.500000000000000196e-05,-2.500000000000000120e-05,-5.000000000000000240e-05,2.000000000000000164e-05
1.200000000000000030e-04,7.000000000000000742e-05,-5.000000000000000240e-05,-1.000000000000000048e-04,8.999999999999999212e-05,1.000000000000000082e-05,-7.000000000000000742e-05,-8.000000000000000654e-05,-8.999999999999999212e-05,-6.000000000000000152e-05,-8.000000000000000654e-05,0.000000000000000000e+00
1.200000000000000030e-04,7.499999999999999343e-05,-4.499999999999999606e-05,-1.000000000000000048e-04,8.500000000000000611e-05,1.500000000000000038e-05,-6.000000000000000152e-05,-7.499999999999999343e-05,-8.500000000000000611e-05,-7.000000000000000742e-05,-7.499999999999999343e-05,-1.000000000000000082e-05
1.200000000000000030e-04,8.000000000000000654e-05,-4.000000000000000327e-05,-1.000000000000000048e-04,8.000000000000000654e-05,2.000000000000000164e-05,-5.000000000000000240e-05,-7.000000000000000742e-05,-8.000000000000000654e-05,-8.000000000000000654e-05,-7.000000000000000742e-05,-2.000000000000000164e-05
1.100000000000000039e-04,6.000000000000000152e-05,-5.000000000000000240e-05,-8.500000000000000611e-05,8.000000000000000654e-05,5.000000000000000409e-06,-3.500000000000000371e-05,-6.000000000000000152e-05,-6.500000000000000786e-05,-8.000000000000000654e-05,-6.000000000000000152e-05,-1.000000000000000082e-05
1.000000000000000048e-04,4.000000000000000327e-05,-6.000000000000000152e-05,-7.000000000000000742e-05,8.000000000000000654e-05,-1.000000000000000082e-05,-2.000000000000000164e-05,-5.000000000000000240e-05,-5.000000000000000240e-05,-8.000000000000000654e-05,-5.000000000000000240e-05,0.000000000000000000e+00
7.499999999999999343e-05,2.000000000000000164e-05,-5.500000000000000196e-05,-4.499999999999999606e-05,6.000000000000000152e-05,-1.500000000000000038e-05,-1.000000000000000082e-05,-4.499999999999999606e-05,-4.000000000000000327e-05,-5.500000000000000196e-05,-4.499999999999999606e-05,1.500000000000000038e-05
5.000000000000000240e-05,0.000000000000000000e+00,-5.000000000000000240e-05,-2.000000000000000164e-05,4.000000000000000327e-05,-2.000000000000000164e-05,0.000000000000000000e+00,-4.000000000000000327e-05,-3.000000000000000076e-05,-3.000000000000000076e-05,-4.000000000000000327e-05,3.000000000000000076e-05
4.499999999999999606e-05,0.000000000000000000e+00,-4.499999999999999606e-05,-2.000000000000000164e-05,4.000000000000000327e-05,-2.000000000000000164e-05,-2.000000000000000164e-05,-6.000000000000000152e-05,-5.500000000000000196e-05,-4.499999999999999606e-05,-6.000000000000000152e-05,1.000000000000000082e-05
4.000000000000000327e-05,0.000000000000000000e+00,-4.000000000000000327e-05,-2.000000000000000164e-05,4.000000000000000327e-05,-2.000000000000000164e-05,-4.000000000000000327e-05,-8.000000000000000654e-05,-8.000000000000000654e-05,-6.000000000000000152e-05,-8.000000000000000654e-05,-1.000000000000000082e-05
3.500000000000000371e-05,-1.000000000000000082e-05,-4.499999999999999606e-05,-1.000000000000000082e-05,4.000000000000000327e-05,-3.000000000000000076e-05,-5.500000000000000196e-05,-9.500000000000000523e-05,-1.000000000000000048e-04,-8.999999999999999212e-05,-1.100000000000000039e-04,-3.000000000000000076e-05
3.000000000000000076e-05,-2.000000000000000164e-05,-5.000000000000000240e-05,0.000000000000000000e+00,4.000000000000000327e-05,-4.000000000000000327e-05,-7.000000000000000742e-05,-1.100000000000000039e-04,-1.200000000000000030e-04,-1.200000000000000030e-04,-1.400000000000000148e-04,-5.000000000000000240e-05
4.000000000000000327e-05,-1.000000000000000082e-05,-5.000000000000000240e-05,-1.000000000000000082e-05,4.000000000000000327e-05,-3.000000000000000076e-05,-6.000000000000000152e-05,-9.500000000000000523e-05,-1.100000000000000039e-04,-1.250000000000000026e-04,-1.350000000000000017e-04,-5.500000000000000196e-05
5.000000000000000240e-05,0.000000000000000000e+00,-5.000000000000000240e-05,-2.000000000000000164e-05,4.000000000000000327e-05,-2.000000000000000164e-05,-5.000000000000000240e-05,-8.000000000000000654e-05,-1.000000000000000048e-04,-1.300000000000000157e-04,-1.300000000000000157e-04,-6.000000000000000152e-05
5.000000000000000240e-05,1.000000000000000082e-05,-4.000000000000000327e-05,-3.000000000000000076e-05,4.000000000000000327e-05,-1.000000000000000082e-05,-3.000000000000000076e-05,-5.500000000000000196e-05,-7.000000000000000742e-05,-1.250000000000000026e-04,-1.100000000000000039e-04,-4.499999999999999606e-05
5.000000000000000240e-05,2.000000000000000164e-05,-3.000000000000000076e-05,-4.000000000000000327e-05,4.000000000000000327e-05,0.000000000000000000e+00,-1.000000000000000082e-05,-3.000000000000000076e-05,-4.000000000000000327e-05,-1.200000000000000030e-04,-8.999999999999999212e-05,-3.000000000000000076e-05
5.500000000000000196e-05,1.500000000000000038e-05,-4.000000000000000327e-05,-4.000000000000000327e-05,5.000000000000000240e-05,-1.000000000000000082e-05,0.000000000000000000e+00,-3.500000000000000371e-05,-4.499999999999999606e-05,-8.000000000000000654e-05,-7.000000000000000742e-05,-5.000000000000000409e-06
6.000000000000000152e-05,1.000000000000000082e-05,-5.000000000000000240e-05,-4.000000000000000327e-05,6.000000000000000152e-05,-2.000000000000000164e-05,1.000000000000000082e-05,-4.000000000000000327e-05,-5.000000000000000240e-05,-4.000000000000000327e-05,-5.000000000000000240e-05,2.000000000000000164e-05
5.000000000000000240e-05,-1.500000000000000038e-05,-6.500000000000000786e-05,-2.000000000000000164e-05,6.000000000000000152e-05,-4.000000000000000327e-05,-5.000000000000000409e-06,-5.000000000000000240e-05,-6.000000000000000152e-05,-5.000000000000000240e-05,-7.499999999999999343e-05,1.000000000000000082e-05
4.000000000000000327e-05,-4.000000000000000327e-05,-8.000000000000000654e-05,0.000000000000000000e+00,6.000000000000000152e-05,-6.000000000000000152e-05,-2.000000000000000164e-05,-6.000000000000000152e-05,-7.000000000000000742e-05,-6.000000000000000152e-05,-1.000000000000000048e-04,0.000000000000000000e+00
4.499999999999999606e-05,-3.000000000000000076e-05,-7.499999999999999343e-05,-1.000000000000000082e-05,6.000000000000000152e-05,-5.000000000000000240e-05,-3.500000000000000371e-05,-8.000000000000000654e-05,-8.999999999999999212e-05,-8.999999999999999212e-05,-1.250000000000000026e-04,-1.500000000000000038e-05
5.000000000000000240e-05,-2.000000000000000164e-05,-7.000000000000000742e-05,-2.000000000000000164e-05,6.000000000000000152e-05,-4.000000000000000327e-05,-5.000000000000000240e-05,-1.000000000000000048e-04,-1.100000000000000039e-04,-1.200000000000000030e-04,-1.499999999999999869e-04,-3.000000000000000076e-05
6.000000000000000152e-05,-1.000000000000000082e-05,-7.000000000000000742e-05,-3.000000000000000076e-05,7.000000000000000742e-05,-4.000000000000000327e-05,-4.499999999999999606e-05,-9.500000000000000523e-05,-1.100000000000000039e-04,-1.300000000000000157e-04,-1.400000000000000148e-04,-4.499999999999999606e-05
7.000000000000000742e-05,0.000000000000000000e+00,-7.000000000000000742e-05,-4.000000000000000327e-05,8.000000000000000654e-05,-4.000000000000000327e-05,-4.000000000000000327e-05,-8.999999999999999212e-05,-1.100000000000000039e-04,-1.400000000000000148e-04,-1.300000000000000157e-04,-6.000000000000000152e-05
6.500000000000000786e-05,-5.000000000000000409e-06,-7.000000000000000742e-05,-3.000000000000000076e-05,7.000000000000000742e-05,-4.000000000000000327e-05,-2.000000000000000164e-05,-7.000000000000000742e-05,-8.500000000000000611e-05,-1.300000000000000157e-04,-1.150000000000000035e-04,-4.499999999999999606e-05
6.000000000000000152e-05,-1.000000000000000082e-05,-7.000000000000000742e-05,-2.000000000000000164e-05,6.000000000000000152e-05,-4.000000000000000327e-05,0.000000000000000000e+00,-5.000000000000000240e-05,-6.000000000000000152e-05,-1.200000000000000030e-04,-1.000000000000000048e-04,-3.000000000000000076e-05
4.499999999999999606e-05,-2.500000000000000120e-05,-7.000000000000000742e-05,-1.000000000000000082e-05,6.000000000000000152e-05,-5.000000000000000240e-05,0.000000000000000000e+00,-4.499999999999999606e-05,-5.000000000000000240e-05,-8.999999999999999212e-05,-8.500000000000000611e-05,-1.000000000000000082e-05
3.000000000000000076e-05,-4.000000000000000327e-05,-7.000000000000000742e-05,0.000000000000000000e+00,6.000000000000000152e-05,-6.000000000000000152e-05,0.000000000000000000e+00,-4.000000000000000327e-05,-4.000000000000000327e-05,-6.000000000000000152e-05,-7.000000000000000742e-05,1.000000000000000082e-05
3.500000000000000371e-05,-5.000000000000000240e-05,-8.500000000000000611e-05,5.000000000000000409e-06,6.500000000000000786e-05,-7.000000000000000742e-05,-1.000000000000000082e-05,-5.000000000000000240e-05,-5.000000000000000240e-05,-6.500000000000000786e-05,-9.500000000000000523e-05,0.000000000000000000e+00
4.000000000000000327e-05,-6.000000000000000152e-05,-1.000000000000000048e-04,1.000000000000000082e-05,7.000000000000000742e-05,-8.000000000000000654e-05,-2.000000000000000164e-05,-6.000000000000000152e-05,-6.000000000000000152e-05,-7.000000000000000742e-05,-1.200000000000000030e-04,-1.000000000000000082e-05
4.499999999999999606e-05,-5.000000000000000240e-05,-9.500000000000000523e-05,5.000000000000000409e-06,6.500000000000000786e-05,-7.000000000000000742e-05,-3.500000000000000371e-05,-8.000000000000000654e-05,-8.500000000000000611e-05,-9.500000000000000523e-05,-1.350000000000000017e-04,-3.000000000000000076e-05
5.000000000000000240e-05,-4.000000000000000327e-05,-8.999999999999999212e-05,0.000000000000000000e+00,6.000000000000000152e-05,-6.000000000000000152e-05,-5.000000000000000240e-05,-1.000000000000000048e-04,-1.100000000000000039e-04,-1.200000000000000030e-04,-1.499999999999999869e-04,-5.000000000000000240e-05
6.500000000000000786e-05,-1.500000000000000038e-05,-8.000000000000000654e-05,-2.000000000000000164e-05,6.500000000000000786e-05,-4.499999999999999606e-05,-3.500000000000000371e-05,-8.500000000000000611e-05,-1.000000000000000048e-04,-1.300000000000000157e-04,-1.400000000000000148e-04,-5.500000000000000196e-05
8.000000000000000654e-05,1.000000000000000082e-05,-7.000000000000000742e-05,-4.000000000000000327e-05,7.000000000000000742e-05,-3.000000000000000076e-05,-2.000000000000000164e-05,-7.000000000000000742e-05,-8.999999999999999212e-05,-1.400000000000000148e-04,-1.300000000000000157e-04,-6.000000000000000152e-05
6.000000000000000152e-05,-5.000000000000000409e-06,-6.500000000000000786e-05,-2.500000000000000120e-05,6.000000000000000152e-05,-3.500000000000000371e-05,-1.500000000000000038e-05,-7.000000000000000742e-05,-8.000000000000000654e-05,-1.300000000000000157e-04,-1.200000000000000030e-04,-5.000000000000000240e-05
4.000000000000000327e-05,-2.000000000000000164e-05,-6.000000000000000152e-05,-1.000000000000000082e-05,5.000000000000000240e-05,-4.000000000000000327e-05,-1.000000000000000082e-05,-7.000000000000000742e-05,-7.000000000000000742e-05,-1.200000000000000030e-04,-1.100000000000000039e-04,-4.000000000000000327e-05
2.000000000000000164e-05,-5.000000000000000240e-05,-7.000000000000000742e-05,1.500000000000000038e-05,4.499999999999999606e-05,-6.000000000000000152e-05,1.000000000000000082e-05,-5.000000000000000240e-05,-4.499999999999999606e-05,-8.999999999999999212e-05,-9.500000000000000523e-05,-2.000000000000000164e-05
0.000000000000000000e+00,-8.000000000000000654e-05,-8.000000000000000654e-05,4.000000000000000327e-05,4.000000000000000327e-05,-8.000000000000000654e-05,3.000000000000000076e-05,-3.000000000000000076e-05,-2.000000000000000164e-05,-6.000000000000000152e-05,-8.000000000000000654e-05,0.000000000000000000e+00
2.000000000000000164e-05,-6.000000000000000152e-05,-8.000000000000000654e-05,2.000000000000000164e-05,5.000000000000000240e-05,-7.000000000000000742e-05,1.500000000000000038e-05,-4.499999999999999606e-05,-3.000000000000000076e-05,-7.000000000000000742e-05,-1.000000000000000048e-04,-5.000000000000000409e-06
4.000000000000000327e-05,-4.000000000000000327e-05,-8.000000000000000654e-05,0.000000000000000000e+00,6.000000000000000152e-05,-6.000000000000000152e-05,0.000000000000000000e+00,-6.000000000000000152e-05,-4.000000000000000327e-05,-8.000000000000000654e-05,-1.200000000000000030e-04,-1.000000000000000082e-05
4.000000000000000327e-05,-4.000000000000000327e-05,-8.000000000000000654e-05,0.000000000000000000e+00,6.000000000000000152e-05,-6.000000000000000152e-05,-5.000000000000000409e-06,-7.000000000000000742e-05,-6.000000000000000152e-05,-9.500000000000000523e-05,-1.300000000000000157e-04,-2.000000000000000164e-05
4.000000000000000327e-05,-4.000000000000000327e-05,-8.000000000000000654e-05,0.000000000000000000e+00,6.000000000000000152e-05,-6.000000000000000152e-05,-1.000000000000000082e-05,-8.000000000000000654e-05,-8.000000000000000654e-05,-1.100000000000000039e-04,-1.400000000000000148e-04,-3.000000000000000076e-05
5.000000000000000240e-05,-2.500000000000000120e-05,-7.499999999999999343e-05,-1.000000000000000082e-05,6.000000000000000152e-05,-5.000000000000000240e-05,-1.500000000000000038e-05,-7.000000000000000742e-05,-8.000000000000000654e-05,-1.200000000000000030e-04,-1.400000000000000148e-04,-4.000000000000000327e-05
6.000000000000000152e-05,-1.000000000000000082e-05,-7.000000000000000742e-05,-2.000000000000000164e-05,6.000000000000000152e-05,-4.000000000000000327e-05,-2.000000000000000164e-05,-6.000000000000000152e-05,-8.000000000000000654e-05,-1.300000000000000157e-04,-1.400000000000000148e-04,-5.000000000000000240e-05
5.000000000000000240e-05,-1.500000000000000038e-05,-6.500000000000000786e-05,-1.500000000000000038e-05,5.500000000000000196e-05,-4.000000000000000327e-05,5.000000000000000409e-06,-4.499999999999999606e-05,-5.500000000000000196e-05,-1.100000000000000039e-04,-1.150000000000000035e-04,-3.500000000000000371e-05
4.000000000000000327e-05,-2.000000000000000164e-05,-6.000000000000000152e-05,-1.000000000000000082e-05,5.000000000000000240e-05,-4.000000000000000327e-05,3.000000000000000076e-05,-3.000000000000000076e-05,-3.000000000000000076e-05,-8.999999999999999212e-05,-8.999999999999999212e-05,-2.000000000000000164e-05
3.000000000000000076e-05,-4.000000000000000327e-05,-7.000000000000000742e-05,5.000000000000000409e-06,5.000000000000000240e-05,-5.500000000000000196e-05,3.500000000000000371e-05,-3.000000000000000076e-05,-2.000000000000000164e-05,-6.500000000000000786e-05,-8.000000000000000654e-05,0.000000000000000000e+00
2.000000000000000164e-05,-6.000000000000000152e-05,-8.000000000000000654e-05,2.000000000000000164e-05,5.000000000000000240e-05,-7.000000000000000742e-05,4.000000000000000327e-05,-3.000000000000000076e-05,-1.000000000000000082e-05,-4.000000000000000327e-05,-7.000000000000000742e-05,2.000000000000000164e-05
2.000000000000000164e-05,-6.000000000000000152e-05,-8.000000000000000654e-05,2.000000000000000164e-05,5.000000000000000240e-05,-7.000000000000000742e-05,2.500000000000000120e-05,-4.000000000000000327e-05,-2.000000000000000164e-05,-5.500000000000000196e-05,-8.999999999999999212e-05,1.000000000000000082e-05
2.000000000000000164e-05,-6.000000000000000152e-05,-8.000000000000000654e-05,2.000000000000000164e-05,5.000000000000000240e-05,-7.000000000000000742e-05,1.000000000000000082e-05,-5.000000000000000240e-05,-3.000000000000000076e-05,-7.000000000000000742e-05,-1.100000000000000039e-04,0.000000000000000000e+00
4.000000000000000327e-05,-4.000000000000000327e-05,-8.000000000000000654e-05,0.000000000000000000e+00,6.000000000000000152e-05,-6.000000000000000152e-05,-1.500000000000000038e-05,-7.499999999999999343e-05,-6.500000000000000786e-05,-8.999999999999999212e-05,-1.350000000000000017e-04,-2.000000000000000164e-05
6.000000000000000152e-05,-2.000000000000000164e-05,-8.000000000000000654e-05,-2.000000000000000164e-05,7.000000000000000742e-05,-5.000000000000000240e-05,-4.000000000000000327e-05,-1.000000000000000048e-04,-1.000000000000000048e-04,-1.100000000000000039e-04,-1.600000000000000131e-04,-4.000000000000000327e-05
7.000000000000000742e-05,0.000000000000000000e+00,-7.000000000000000742e-05,-3.500000000000000371e-05,7.000000000000000742e-05,-3.500000000000000371e-05,-3.000000000000000076e-05,-8.999999999999999212e-05,-9.500000000000000523e-05,-1.300000000000000157e-04,-1.600000000000000131e-04,-5.500000000000000196e-05
8.000000000000000654e-05,2.000000000000000164e-05,-6.000000000000000152e-05,-5.000000000000000240e-05,7.000000000000000742e-05,-2.000000000000000164e-05,-2.000000000000000164e-05,-8.000000000000000654e-05,-8.999999999999999212e-05,-1.499999999999999869e-04,-1.600000000000000131e-04,-7.000000000000000742e-05
6.000000000000000152e-05,1.000000000000000082e-05,-5.000000000000000240e-05,-3.500000000000000371e-05,5.500000000000000196e-05,-2.000000000000000164e-05,0.000000000000000000e+00,-5.500000000000000196e-05,-5.500000000000000196e-05,-1.300000000000000157e-04,-1.300000000000000157e-04,-4.000000000000000327e-05
4.000000000000000327e-05,0.000000000000000000e+00,-4.000000000000000327e-05,-2.000000000000000164e-05,4.000000000000000327e-05,-2.000000000000000164e-05,2.000000000000000164e-05,-3.000000000000000076e-05,-2.000000000000000164e-05,-1.100000000000000039e-04,-1.000000000000000048e-04,-1.000000000000000082e-05
2.000000000000000164e-05,-4.000000000000000327e-05,-6.000000000000000152e-05,1.000000000000000082e-05,4.000000000000000327e-05,-5.000000000000000240e-05,4.000000000000000327e-05,-1.000000000000000082e-05,0.000000000000000000e+00,-7.000000000000000742e-05,-8.999999999999999212e-05,0.000000000000000000e+00
0.000000000000000000e+00,-8.000000000000000654e-05,-8.000000000000000654e-05,4.000000000000000327e-05,4.000000000000000327e-05,-8.000000000000000654e-05,6.000000000000000152e-05,1.000000000000000082e-05,2.000000000000000164e-05,-3.000000000000000076e-05,-8.000000000000000654e-05,1.000000000000000082e-05
0.000000000000000000e+00,-1.000000000000000048e-04,-1.000000000000000048e-04,5.000000000000000240e-05,5.000000000000000240e-05,-1.000000000000000048e-04,7.499999999999999343e-05,3.000000000000000076e-05,1.000000000000000082e-05,-4.000000000000000327e-05,-1.100000000000000039e-04,-1.000000000000000082e-05
0.000000000000000000e+00,-1.200000000000000030e-04,-1.200000000000000030e-04,6.000000000000000152e-05,6.000000000000000152e-05,-1.200000000000000030e-04,8.999999999999999212e-05,5.000000000000000240e-05,0.000000000000000000e+00,-5.000000000000000240e-05,-1.400000000000000148e-04,-3.000000000000000076e-05
-5.000000000000000409e-06,-1.200000000000000030e-04,-1.150000000000000035e-04,6.000000000000000152e-05,6.000000000000000152e-05,-1.200000000000000030e-04,1.150000000000000035e-04,8.500000000000000611e-05,1.000000000000000082e-05,-8.999999999999999212e-05,-1.900000000000000105e-04,-8.000000000000000654e-05
-1.000000000000000082e-05,-1.200000000000000030e-04,-1.100000000000000039e-04,6.000000000000000152e-05,6.000000000000000152e-05,-1.200000000000000030e-04,1.400000000000000148e-04,1.200000000000000030e-04,2.000000000000000164e-05,-1.300000000000000157e-04,-2.400000000000000061e-04,-1.300000000000000157e-04
1.500000000000000038e-05,-1.400000000000000148e-04,-1.550000000000000000e-04,6.000000000000000152e-05,8.999999999999999212e-05,-1.499999999999999869e-04,2.000000000000000096e-04,2.200000000000000078e-04,8.000000000000000654e-05,-1.300000000000000157e-04,-2.449999999999999921e-04,-1.600000000000000131e-04
4.000000000000000327e-05,-1.600000000000000131e-04,-2.000000000000000096e-04,6.000000000000000152e-05,1.200000000000000030e-04,-1.799999999999999842e-04,2.600000000000000314e-04,3.200000000000000262e-04,1.400000000000000148e-04,-1.300000000000000157e-04,-2.500000000000000052e-04,-1.900000000000000105e-04
1.000000000000000082e-05,-1.300000000000000157e-04,-1.400000000000000148e-04,6.000000000000000152e-05,7.499999999999999343e-05,-1.350000000000000017e-04,3.099999999999999999e-04,3.850000000000000340e-04,2.100000000000000087e-04,-8.999999999999999212e-05,-2.250000000000000209e-04,-1.799999999999999842e-04
-2.000000000000000164e-05,-1.000000000000000048e-04,-8.000000000000000654e-05,6.000000000000000152e-05,3.000000000000000076e-05,-8.999999999999999212e-05,3.599999999999999685e-04,4.500000000000000419e-04,2.800000000000000297e-04,-5.000000000000000240e-05,-2.000000000000000096e-04,-1.700000000000000122e-04
-5.000000000000000409e-06,-6.500000000000000786e-05,-6.000000000000000152e-05,3.500000000000000371e-05,3.000000000000000076e-05,-6.500000000000000786e-05,3.649999999999999816e-04,4.800000000000000122e-04,3.400000000000000244e-04,1.500000000000000038e-05,-1.499999999999999869e-04,-1.200000000000000030e-04
1.000000000000000082e-05,-3.000000000000000076e-05,-4.000000000000000327e-05,1.000000000000000082e-05,3.000000000000000076e-05,-4.000000000000000327e-05,3.699999999999999947e-04,5.100000000000000366e-04,4.000000000000000192e-04,8.000000000000000654e-05,-1.000000000000000048e-04,-7.000000000000000742e-05
1.100000000000000039e-04,4.499999999999999606e-05,-6.500000000000000786e-05,-7.499999999999999343e-05,8.500000000000000611e-05,-1.000000000000000082e-05,3.599999999999999685e-04,5.900000000000000296e-04,4.949999999999999973e-04,1.600000000000000131e-04,-2.500000000000000120e-05,5.000000000000000409e-06
2.100000000000000087e-04,1.200000000000000030e-04,-8.999999999999999212e-05,-1.600000000000000131e-04,1.400000000000000148e-04,2.000000000000000164e-05,3.500000000000000507e-04,6.700000000000000226e-04,5.900000000000000296e-04,2.400000000000000061e-04,5.000000000000000240e-05,8.000000000000000654e-05
3.299999999999999982e-04,2.050000000000000227e-04,-1.250000000000000026e-04,-2.650000000000000445e-04,2.250000000000000209e-04,4.000000000000000327e-05,3.400000000000000244e-04,8.050000000000000515e-04,7.500000000000000156e-04,3.800000000000000209e-04,1.900000000000000105e-04,1.799999999999999842e-04
4.500000000000000419e-04,2.900000000000000017e-04,-1.600000000000000131e-04,-3.699999999999999947e-04,3.099999999999999999e-04,6.000000000000000152e-05,3.299999999999999982e-04,9.400000000000000803e-04,9.100000000000000016e-04,5.200000000000000629e-04,3.299999999999999982e-04,2.800000000000000297e-04
6.350000000000000392e-04,3.900000000000000471e-04,-2.449999999999999921e-04,-5.150000000000000498e-04,4.450000000000000288e-04,7.000000000000000742e-05,2.650000000000000445e-04,9.500000000000001065e-04,9.650000000000000374e-04,6.850000000000000620e-04,5.300000000000000891e-04,4.450000000000000288e-04
8.200000000000000908e-04,4.899999999999999842e-04,-3.299999999999999982e-04,-6.599999999999999964e-04,5.800000000000000034e-04,8.000000000000000654e-05,2.000000000000000096e-04,9.600000000000000243e-04,1.020000000000000073e-03,8.499999999999999526e-04,7.299999999999999632e-04,6.099999999999999737e-04
9.600000000000000243e-04,5.949999999999999343e-04,-3.649999999999999816e-04,-7.800000000000000943e-04,6.650000000000000095e-04,1.150000000000000035e-04,3.000000000000000076e-05,6.750000000000000357e-04,9.300000000000000541e-04,9.600000000000000243e-04,9.350000000000000672e-04,8.200000000000000908e-04
1.100000000000000066e-03,7.000000000000001013e-04,-4.000000000000000192e-04,-9.000000000000000838e-04,7.500000000000000156e-04,1.499999999999999869e-04,-1.400000000000000148e-04,3.900000000000000471e-04,8.400000000000000348e-04,1.069999999999999988e-03,1.140000000000000171e-03,1.030000000000000100e-03
1.205000000000000125e-03,8.300000000000001170e-04,-3.750000000000000078e-04,-1.020000000000000073e-03,7.950000000000000252e-04,2.250000000000000209e-04,-3.699999999999999947e-04,-2.500000000000000120e-05,6.450000000000000655e-04,1.120000000000000119e-03,1.300000000000000157e-03,1.219999999999999947e-03
1.310000000000000183e-03,9.600000000000000243e-04,-3.500000000000000507e-04,-1.140000000000000171e-03,8.400000000000000348e-04,2.999999999999999737e-04,-5.999999999999999474e-04,-4.400000000000000157e-04,4.500000000000000419e-04,1.170000000000000033e-03,1.459999999999999926e-03,1.410000000000000012e-03
1.275000000000000092e-03,1.080000000000000014e-03,-1.950000000000000236e-04,-1.180000000000000059e-03,7.399999999999999894e-04,4.400000000000000157e-04,-7.800000000000000943e-04,-7.800000000000000943e-04,2.750000000000000166e-04,1.180000000000000059e-03,1.535000000000000123e-03,1.520000000000000084e-03
1.240000000000000000e-03,1.199999999999999895e-03,-4.000000000000000327e-05,-1.219999999999999947e-03,6.400000000000000524e-04,5.800000000000000034e-04,-9.600000000000000243e-04,-1.120000000000000119e-03,1.000000000000000048e-04,1.189999999999999869e-03,1.610000000000000103e-03,1.630000000000000155e-03
1.030000000000000100e-03,1.080000000000000014e-03,5.000000000000000240e-05,-1.054999999999999948e-03,4.899999999999999842e-04,5.650000000000000725e-04,-9.300000000000000541e-04,-1.229999999999999974e-03,-1.000000000000000082e-05,1.144999999999999967e-03,1.544999999999999932e-03,1.560000000000000189e-03
8.200000000000000908e-04,9.600000000000000243e-04,1.400000000000000148e-04,-8.900000000000000576e-04,3.400000000000000244e-04,5.500000000000000331e-04,-9.000000000000000838e-04,-1.340000000000000045e-03,-1.200000000000000030e-04,1.100000000000000066e-03,1.479999999999999979e-03,1.490000000000000005e-03
6.400000000000000524e-04,7.500000000000000156e-04,1.100000000000000039e-04,-6.950000000000000882e-04,2.650000000000000445e-04,4.299999999999999894e-04,-8.300000000000001170e-04,-1.335000000000000032e-03,-2.300000000000000070e-04,9.250000000000000409e-04,1.240000000000000000e-03,1.240000000000000000e-03
4.600000000000000139e-04,5.400000000000000069e-04,8.000000000000000654e-05,-5.000000000000000104e-04,1.900000000000000105e-04,3.099999999999999999e-04,-7.600000000000000418e-04,-1.330000000000000019e-03,-3.400000000000000244e-04,7.500000000000000156e-04,1.000000000000000021e-03,9.899999999999999946e-04
2.600000000000000314e-04,3.500000000000000507e-04,8.999999999999999212e-05,-3.049999999999999868e-04,8.500000000000000611e-05,2.200000000000000078e-04,-6.700000000000000226e-04,-1.310000000000000183e-03,-5.150000000000000498e-04,4.100000000000000454e-04,5.949999999999999343e-04,6.700000000000000226e-04
6.000000000000000152e-05,1.600000000000000131e-04,1.000000000000000048e-04,-1.100000000000000039e-04,-2.000000000000000164e-05,1.300000000000000157e-04,-5.800000000000000034e-04,-1.290000000000000131e-03,-6.900000000000000751e-04,7.000000000000000742e-05,1.900000000000000105e-04,3.500000000000000507e-04
-5.000000000000000240e-05,8.999999999999999212e-05,1.400000000000000148e-04,-2.000000000000000164e-05,-9.500000000000000523e-05,1.150000000000000035e-04,-5.400000000000000069e-04,-1.284999999999999901e-03,-7.950000000000000252e-04,-1.700000000000000122e-04,-3.000000000000000076e-05,2.000000000000000096e-04
-1.600000000000000131e-04,2.000000000000000164e-05,1.799999999999999842e-04,7.000000000000000742e-05,-1.700000000000000122e-04,1.000000000000000048e-04,-5.000000000000000104e-04,-1.280000000000000105e-03,-9.000000000000000838e-04,-4.100000000000000454e-04,-2.500000000000000052e-04,5.000000000000000240e-05
-1.700000000000000122e-04,-2.000000000000000164e-05,1.499999999999999869e-04,9.500000000000000523e-05,-1.600000000000000131e-04,6.500000000000000786e-05,-5.200000000000000629e-04,-1.250000000000000026e-03,-9.200000000000000278e-04,-5.150000000000000498e-04,-3.350000000000000113e-04,-5.000000000000000409e-06
-1.799999999999999842e-04,-6.000000000000000152e-05,1.200000000000000030e-04,1.200000000000000030e-04,-1.499999999999999869e-04,3.000000000000000076e-05,-5.400000000000000069e-04,-1.219999999999999947e-03,-9.400000000000000803e-04,-6.199999999999999999e-04,-4.200000000000000174e-04,-6.000000000000000152e-05
-1.900000000000000105e-04,-5.500000000000000196e-05,1.350000000000000017e-04,1.200000000000000030e-04,-1.600000000000000131e-04,4.000000000000000327e-05,-4.949999999999999973e-04,-1.120000000000000119e-03,-8.599999999999999789e-04,-6.400000000000000524e-04,-4.500000000000000419e-04,-9.500000000000000523e-05
-2.000000000000000096e-04,-5.000000000000000240e-05,1.499999999999999869e-04,1.200000000000000030e-04,-1.700000000000000122e-04,5.000000000000000240e-05,-4.500000000000000419e-04,-1.020000000000000073e-03,-7.800000000000000943e-04,-6.599999999999999964e-04,-4.800000000000000122e-04,-1.300000000000000157e-04
-1.550000000000000000e-04,-1.500000000000000038e-05,1.400000000000000148e-04,8.000000000000000654e-05,-1.450000000000000009e-04,6.500000000000000786e-05,-4.100000000000000454e-04,-9.050000000000000969e-04,-6.950000000000000882e-04,-5.999999999999999474e-04,-4.299999999999999894e-04,-1.250000000000000026e-04
-1.100000000000000039e-04,2.000000000000000164e-05,1.300000000000000157e-04,4.000000000000000327e-05,-1.200000000000000030e-04,8.000000000000000654e-05,-3.699999999999999947e-04,-7.900000000000000121e-04,-6.099999999999999737e-04,-5.400000000000000069e-04,-3.800000000000000209e-04,-1.200000000000000030e-04
-1.250000000000000026e-04,-5.000000000000000409e-06,1.200000000000000030e-04,6.000000000000000152e-05,-1.200000000000000030e-04,6.000000000000000152e-05,-2.999999999999999737e-04,-6.700000000000000226e-04,-5.000000000000000104e-04,-4.800000000000000122e-04,-3.450000000000000375e-04,-1.150000000000000035e-04
-1.400000000000000148e-04,-3.000000000000000076e-05,1.100000000000000039e-04,8.000000000000000654e-05,-1.200000000000000030e-04,4.000000000000000327e-05,-2.300000000000000070e-04,-5.500000000000000331e-04,-3.900000000000000471e-04,-4.200000000000000174e-04,-3.099999999999999999e-04,-1.100000000000000039e-04
-1.150000000000000035e-04,-2.500000000000000120e-05,8.999999999999999212e-05,7.000000000000000742e-05,-1.000000000000000048e-04,3.000000000000000076e-05,-1.849999999999999973e-04,-4.600000000000000139e-04,-3.200000000000000262e-04,-3.350000000000000113e-04,-2.650000000000000445e-04,-7.499999999999999343e-05
-8.999999999999999212e-05,-2.000000000000000164e-05,7.000000000000000742e-05,6.000000000000000152e-05,-8.000000000000000654e-05,2.000000000000000164e-05,-1.400000000000000148e-04,-3.699999999999999947e-04,-2.500000000000000052e-04,-2.500000000000000052e-04,-2.200000000000000078e-04,-4.000000000000000327e-05
-7.499999999999999343e-05,-2.500000000000000120e-05,5.000000000000000240e-05,5.000000000000000240e-05,-6.000000000000000152e-05,1.000000000000000082e-05,-1.300000000000000157e-04,-3.299999999999999982e-04,-2.300000000000000070e-04,-2.350000000000000201e-04,-2.250000000000000209e-04,-4.000000000000000327e-05
-6.000000000000000152e-05,-3.000000000000000076e-05,3.000000000000000076e-05,4.000000000000000327e-05,-4.000000000000000327e-05,0.000000000000000000e+00,-1.200000000000000030e-04,-2.900000000000000017e-04,-2.100000000000000087e-04,-2.200000000000000078e-04,-2.300000000000000070e-04,-4.000000000000000327e-05
-4.000000000000000327e-05,-2.500000000000000120e-05,1.500000000000000038e-05,3.000000000000000076e-05,-2.500000000000000120e-05,-5.000000000000000409e-06,-9.500000000000000523e-05,-2.400000000000000061e-04,-1.799999999999999842e-04,-2.200000000000000078e-04,-2.400000000000000061e-04,-5.000000000000000240e-05
-2.000000000000000164e-05,-2.000000000000000164e-05,0.000000000000000000e+00,2.000000000000000164e-05,-1.000000000000000082e-05,-1.000000000000000082e-05,-7.000000000000000742e-05,-1.900000000000000105e-04,-1.499999999999999869e-04,-2.200000000000000078e-04,-2.500000000000000052e-04,-6.000000000000000152e-05
1.000000000000000082e-05,-1.000000000000000082e-05,-2.000000000000000164e-05,0.000000000000000000e+00,1.500000000000000038e-05,-1.500000000000000038e-05,-4.000000000000000327e-05,-1.400000000000000148e-04,-1.100000000000000039e-04,-1.900000000000000105e-04,-2.149999999999999947e-04,-5.500000000000000196e-05
4.000000000000000327e-05,0.000000000000000000e+00,-4.000000000000000327e-05,-2.000000000000000164e-05,4.000000000000000327e-05,-2.000000000000000164e-05,-1.000000000000000082e-05,-8.999999999999999212e-05,-7.000000000000000742e-05,-1.600000000000000131e-04,-1.799999999999999842e-04,-5.000000000000000240e-05
4.000000000000000327e-05,5.000000000000000409e-06,-3.500000000000000371e-05,-2.000000000000000164e-05,3.500000000000000371e-05,-1.500000000000000038e-05,1.000000000000000082e-05,-6.000000000000000152e-05,-4.000000000000000327e-05,-1.350000000000000017e-04,-1.600000000000000131e-04,-3.500000000000000371e-05
4.000000000000000327e-05,1.000000000000000082e-05,-3.000000000000000076e-05,-2.000000000000000164e-05,3.000000000000000076e-05,-1.000000000000000082e-05,3.000000000000000076e-05,-3.000000000000000076e-05,-1.000000000000000082e-05,-1.100000000000000039e-04,-1.400000000000000148e-04,-2.000000000000000164e-05
3.000000000000000076e-05,-1.000000000000000082e-05,-4.000000000000000327e-05,-1.000000000000000082e-05,3.500000000000000371e-05,-2.500000000000000120e-05,4.499999999999999606e-05,-1.500000000000000038e-05,1.000000000000000082e-05,-8.999999999999999212e-05,-1.300000000000000157e-04,-5.000000000000000409e-06
2.000000000000000164e-05,-3.000000000000000076e-05,-5.000000000000000240e-05,0.000000000000000000e+00,4.000000000000000327e-05,-4.000000000000000327e-05,6.000000000000000152e-05,0.000000000000000000e+00,3.000000000000000076e-05,-7.000000000000000742e-05,-1.200000000000000030e-04,1.000000000000000082e-05
2.000000000000000164e-05,-4.499999999999999606e-05,-6.500000000000000786e-05,1.000000000000000082e-05,4.499999999999999606e-05,-5.500000000000000196e-05,5.000000000000000240e-05,0.000000000000000000e+00,2.000000000000000164e-05,-6.500000000000000786e-05,-1.350000000000000017e-04,5.000000000000000409e-06
2.000000000000000164e-05,-6.000000000000000152e-05,-8.000000000000000654e-05,2.000000000000000164e-05,5.000000000000000240e-05,-7.000000000000000742e-05,4.000000000000000327e-05,0.000000000000000000e+00,1.000000000000000082e-05,-6.000000000000000152e-05,-1.499999999999999869e-04,0.000000000000000000e+00
3.000000000000000076e-05,-4.000000000000000327e-05,-7.000000000000000742e-05,5.000000000000000409e-06,5.000000000000000240e-05,-5.500000000000000196e-05,2.500000000000000120e-05,-1.500000000000000038e-05,-1.000000000000000082e-05,-8.000000000000000654e-05,-1.700000000000000122e-04,-1.500000000000000038e-05
4.000000000000000327e-05,-2.000000000000000164e-05,-6.000000000000000152e-05,-1.000000000000000082e-05,5.000000000000000240e-05,-4.000000000000000327e-05,1.000000000000000082e-05,-3.000000000000000076e-05,-3.000000000000000076e-05,-1.000000000000000048e-04,-1.900000000000000105e-04,-3.000000000000000076e-05
5.000000000000000240e-05,0.000000000000000000e+00,-5.000000000000000240e-05,-2.500000000000000120e-05,5.000000000000000240e-05,-2.500000000000000120e-05,1.500000000000000038e-05,-1.500000000000000038e-05,-1.000000000000000082e-05,-1.100000000000000039e-04,-1.799999999999999842e-04,-4.000000000000000327e-05
6.000000000000000152e-05,2.000000000000000164e-05,-4.000000000000000327e-05,-4.000000000000000327e-05,5.000000000000000240e-05,-1.000000000000000082e-05,2.000000000000000164e-05,0.000000000000000000e+00,1.000000000000000082e-05,-1.200000000000000030e-04,-1.700000000000000122e-04,-5.000000000000000240e-05
6.000000000000000152e-05,1.000000000000000082e-05,-5.000000000000000240e-05,-3.500000000000000371e-05,5.500000000000000196e-05,-2.000000000000000164e-05,4.000000000000000327e-05,2.000000000000000164e-05,3.000000000000000076e-05,-1.050000000000000044e-04,-1.550000000000000000e-04,-3.500000000000000371e-05
6.000000000000000152e-05,0.000000000000000000e+00,-6.000000000000000152e-05,-3.000000000000000076e-05,6.000000000000000152e-05,-3.000000000000000076e-05,6.000000000000000152e-05,4.000000000000000327e-05,5.000000000000000240e-05,-8.999999999999999212e-05,-1.400000000000000148e-04,-2.000000000000000164e-05
4.499999999999999606e-05,-2.000000000000000164e-05,-6.500000000000000786e-05,-1.500000000000000038e-05,6.000000000000000152e-05,-4.499999999999999606e-05,7.499999999999999343e-05,5.000000000000000240e-05,6.500000000000000786e-05,-5.000000000000000240e-05,-1.100000000000000039e-04,5.000000000000000409e-06
3.000000000000000076e-05,-4.000000000000000327e-05,-7.000000000000000742e-05,0.000000000000000000e+00,6.000000000000000152e-05,-6.000000000000000152e-05,8.999999999999999212e-05,6.000000000000000152e-05,8.000000000000000654e-05,-1.000000000000000082e-05,-8.000000000000000654e-05,3.000000000000000076e-05
1.500000000000000038e-05,-4.000000000000000327e-05,-5.500000000000000196e-05,1.000000000000000082e-05,4.000000000000000327e-05,-5.000000000000000240e-05,6.500000000000000786e-05,3.500000000000000371e-05,5.500000000000000196e-05,-3.500000000000000371e-05,-1.250000000000000026e-04,1.500000000000000038e-05
0.000000000000000000e+00,-4.000000000000000327e-05,-4.000000000000000327e-05,2.000000000000000164e-05,2.000000000000000164e-05,-4.000000000000000327e-05,4.000000000000000327e-05,1.000000000000000082e-05,3.000000000000000076e-05,-6.000000000000000152e-05,-1.700000000000000122e-04,0.000000000000000000e+00
3.000000000000000076e-05,-3.000000000000000076e-05,-6.000000000000000152e-05,0.000000000000000000e+00,4.499999999999999606e-05,-4.499999999999999606e-05,4.000000000000000327e-05,5.000000000000000409e-06,2.000000000000000164e-05,-8.000000000000000654e-05,-1.799999999999999842e-04,-2.000000000000000164e-05
6.000000000000000152e-05,-2.000000000000000164e-05,-8.000000000000000654e-05,-2.000000000000000164e-05,7.000000000000000742e-05,-5.000000000000000240e-05,4.000000000000000327e-05,0.000000000000000000e+00,1.000000000000000082e-05,-1.000000000000000048e-04,-1.900000000000000105e-04,-4.000000000000000327e-05
7.499999999999999343e-05,-1.000000000000000082e-05,-8.500000000000000611e-05,-3.000000000000000076e-05,7.499999999999999343e-05,-4.499999999999999606e-05,4.499999999999999606e-05,2.500000000000000120e-05,3.000000000000000076e-05,-8.999999999999999212e-05,-1.600000000000000131e-04,-3.000000000000000076e-05
8.999999999999999212e-05,0.000000000000000000e+00,-8.999999999999999212e-05,-4.000000000000000327e-05,8.000000000000000654e-05,-4.000000000000000327e-05,5.000000000000000240e-05,5.000000000000000240e-05,5.000000000000000240e-05,-8.000000000000000654e-05,-1.300000000000000157e-04,-2.000000000000000164e-05
8.000000000000000654e-05,-1.000000000000000082e-05,-8.999999999999999212e-05,-3.000000000000000076e-05,8.000000000000000654e-05,-5.000000000000000240e-05,6.000000000000000152e-05,5.500000000000000196e-05,6.500000000000000786e-05,-6.500000000000000786e-05,-1.200000000000000030e-04,-5.000000000000000409e-06
7.000000000000000742e-05,-2.000000000000000164e-05,-8.999999999999999212e-05,-2.000000000000000164e-05,8.000000000000000654e-05,-6.000000000000000152e-05,7.000000000000000742e-05,6.000000000000000152e-05,8.000000000000000654e-05,-5.000000000000000240e-05,-1.100000000000000039e-04,1.000000000000000082e-05
5.500000000000000196e-05,-3.000000000000000076e-05,-8.500000000000000611e-05,-1.000000000000000082e-05,7.000000000000000742e-05,-6.000000000000000152e-05,8.500000000000000611e-05,7.000000000000000742e-05,9.500000000000000523e-05,-3.000000000000000076e-05,-9.500000000000000523e-05,2.000000000000000164e-05
4.000000000000000327e-05,-4.000000000000000327e-05,-8.000000000000000654e-05,0.000000000000000000e+00,6.000000000000000152e-05,-6.000000000000000152e-05,1.000000000000000048e-04,8.000000000000000654e-05,1.100000000000000039e-04,-1.000000000000000082e-05,-8.000000000000000654e-05,3.000000000000000076e-05
5.000000000000000240e-05,-4.000000000000000327e-05,-8.999999999999999212e-05,-5.000000000000000409e-06,7.000000000000000742e-05,-6.500000000000000786e-05,8.000000000000000654e-05,6.500000000000000786e-05,1.000000000000000048e-04,-1.500000000000000038e-05,-1.050000000000000044e-04,2.500000000000000120e-05
6.000000000000000152e-05,-4.000000000000000327e-05,-1.000000000000000048e-04,-1.000000000000000082e-05,8.000000000000000654e-05,-7.000000000000000742e-05,6.000000000000000152e-05,5.000000000000000240e-05,8.999999999999999212e-05,-2.000000000000000164e-05,-1.300000000000000157e-04,2.000000000000000164e-05
6.000000000000000152e-05,-2.500000000000000120e-05,-8.500000000000000611e-05,-1.500000000000000038e-05,7.000000000000000742e-05,-5.500000000000000196e-05,5.500000000000000196e-05,3.500000000000000371e-05,6.500000000000000786e-05,-4.499999999999999606e-05,-1.450000000000000009e-04,5.000000000000000409e-06
6.000000000000000152e-05,-1.000000000000000082e-05,-7.000000000000000742e-05,-2.000000000000000164e-05,6.000000000000000152e-05,-4.000000000000000327e-05,5.000000000000000240e-05,2.000000000000000164e-05,4.000000000000000327e-05,-7.000000000000000742e-05,-1.600000000000000131e-04,-1.000000000000000082e-05
7.000000000000000742e-05,-5.000000000000000409e-06,-7.499999999999999343e-05,-3.000000000000000076e-05,7.000000000000000742e-05,-4.000000000000000327e-05,5.000000000000000240e-05,3.500000000000000371e-05,5.500000000000000196e-05,-7.499999999999999343e-05,-1.550000000000000000e-04,-2.000000000000000164e-05
8.000000000000000654e-05,0.000000000000000000e+00,-8.000000000000000654e-05,-4.000000000000000327e-05,8.000000000000000654e-05,-4.000000000000000327e-05,5.000000000000000240e-05,5.000000000000000240e-05,7.000000000000000742e-05,-8.000000000000000654e-05,-1.499999999999999869e-04,-3.000000000000000076e-05
8.000000000000000654e-05,1.000000000000000082e-05,-7.000000000000000742e-05,-4.499999999999999606e-05,7.499999999999999343e-05,-3.000000000000000076e-05,6.500000000000000786e-05,6.500000000000000786e-05,8.500000000000000611e-05,-6.500000000000000786e-05,-1.300000000000000157e-04,-1.000000000000000082e-05
8.000000000000000654e-05,2.000000000000000164e-05,-6.000000000000000152e-05,-5.000000000000000240e-05,7.000000000000000742e-05,-2.000000000000000164e-05,8.000000000000000654e-05,8.000000000000000654e-05,1.000000000000000048e-04,-5.000000000000000240e-05,-1.100000000000000039e-04,1.000000000000000082e-05
6.500000000000000786e-05,0.000000000000000000e+00,-6.500000000000000786e-05,-3.500000000000000371e-05,6.500000000000000786e-05,-3.000000000000000076e-05,8.500000000000000611e-05,8.500000000000000611e-05,1.150000000000000035e-04,-1.500000000000000038e-05,-1.000000000000000048e-04,2.500000000000000120e-05
5.000000000000000240e-05,-2.000000000000000164e-05,-7.000000000000000742e-05,-2.000000000000000164e-05,6.000000000000000152e-05,-4.000000000000000327e-05,8.999999999999999212e-05,8.999999999999999212e-05,1.300000000000000157e-04,2.000000000000000164e-05,-8.999999999999999212e-05,4.000000000000000327e-05
5.500000000000000196e-05,-1.500000000000000038e-05,-7.000000000000000742e-05,-2.000000000000000164e-05,6.000000000000000152e-05,-4.000000000000000327e-05,7.499999999999999343e-05,7.499999999999999343e-05,1.150000000000000035e-04,5.000000000000000409e-06,-1.150000000000000035e-04,3.500000000000000371e-05
6.000000000000000152e-05,-1.000000000000000082e-05,-7.000000000000000742e-05,-2.000000000000000164e-05,6.000000000000000152e-05,-4.000000000000000327e-05,6.000000000000000152e-05,6.000000000000000152e-05,1.000000000000000048e-04,-1.000000000000000082e-05,-1.400000000000000148e-04,3.000000000000000076e-05
7.000000000000000742e-05,-5.000000000000000409e-06,-7.499999999999999343e-05,-3.000000000000000076e-05,7.000000000000000742e-05,-4.000000000000000327e-05,4.499999999999999606e-05,4.499999999999999606e-05,7.499999999999999343e-05,-3.000000000000000076e-05,-1.550000000000000000e-04,1.000000000000000082e-05
8.000000000000000654e-05,0.000000000000000000e+00,-8.000000000000000654e-05,-4.000000000000000327e-05,8.000000000000000654e-05,-4.000000000000000327e-05,3.000000000000000076e-05,3.000000000000000076e-05,5.000000000000000240e-05,-5.000000000000000240e-05,-1.700000000000000122e-04,-1.000000000000000082e-05
8.000000000000000654e-05,0.000000000000000000e+00,-8.000000000000000654e-05,-4.000000000000000327e-05,8.000000000000000654e-05,-4.000000000000000327e-05,4.000000000000000327e-05,5.000000000000000240e-05,7.000000000000000742e-05,-5.500000000000000196e-05,-1.600000000000000131e-04,-5.000000000000000409e-06
8.000000000000000654e-05,0.000000000000000000e+00,-8.000000000000000654e-05,-4.000000000000000327e-05,8.000000000000000654e-05,-4.000000000000000327e-05,5.000000000000000240e-05,7.000000000000000742e-05,8.999999999999999212e-05,-6.000000000000000152e-05,-1.499999999999999869e-04,0.000000000000000000e+00
7.499999999999999343e-05,1.000000000000000082e-05,-6.500000000000000786e-05,-4.000000000000000327e-05,7.000000000000000742e-05,-3.000000000000000076e-05,6.500000000000000786e-05,8.999999999999999212e-05,1.100000000000000039e-04,-3.500000000000000371e-05,-1.200000000000000030e-04,1.500000000000000038e-05
7.000000000000000742e-05,2.000000000000000164e-05,-5.000000000000000240e-05,-4.000000000000000327e-05,6.000000000000000152e-05,-2.000000000000000164e-05,8.000000000000000654e-05,1.100000000000000039e-04,1.300000000000000157e-04,-1.000000000000000082e-05,-8.999999999999999212e-05,3.000000000000000076e-05
6.000000000000000152e-05,0.000000000000000000e+00,-6.000000000000000152e-05,-3.000000000000000076e-05,6.000000000000000152e-05,-3.000000000000000076e-05,9.500000000000000523e-05,1.100000000000000039e-04,1.400000000000000148e-04,1.500000000000000038e-05,-8.000000000000000654e-05,5.000000000000000240e-05
5.000000000000000240e-05,-2.000000000000000164e-05,-7.000000000000000742e-05,-2.000000000000000164e-05,6.000000000000000152e-05,-4.000000000000000327e-05,1.100000000000000039e-04,1.100000000000000039e-04,1.499999999999999869e-04,4.000000000000000327e-05,-7.000000000000000742e-05,7.000000000000000742e-05
5.000000000000000240e-05,-2.000000000000000164e-05,-7.000000000000000742e-05,-2.000000000000000164e-05,6.000000000000000152e-05,-4.000000000000000327e-05,8.999999999999999212e-05,1.000000000000000048e-04,1.350000000000000017e-04,2.000000000000000164e-05,-1.000000000000000048e-04,5.500000000000000196e-05
5.000000000000000240e-05,-2.000000000000000164e-05,-7.000000000000000742e-05,-2.000000000000000164e-05,6.000000000000000152e-05,-4.000000000000000327e-05,7.000000000000000742e-05,8.999999999999999212e-05,1.200000000000000030e-04,0.000000000000000000e+00,-1.300000000000000157e-04,4.000000000000000327e-05
8.500000000000000611e-05,-5.000000000000000409e-06,-8.999999999999999212e-05,-4.000000000000000327e-05,8.500000000000000611e-05,-4.499999999999999606e-05,6.000000000000000152e-05,7.499999999999999343e-05,9.500000000000000523e-05,-1.000000000000000082e-05,-1.450000000000000009e-04,3.000000000000000076e-05
1.200000000000000030e-04,1.000000000000000082e-05,-1.100000000000000039e-04,-6.000000000000000152e-05,1.100000000000000039e-04,-5.000000000000000240e-05,5.000000000000000240e-05,6.000000000000000152e-05,7.000000000000000742e-05,-2.000000000000000164e-05,-1.600000000000000131e-04,2.000000000000000164e-05
1.050000000000000044e-04,1.500000000000000038e-05,-8.999999999999999212e-05,-6.000000000000000152e-05,9.500000000000000523e-05,-3.500000000000000371e-05,5.500000000000000196e-05,8.000000000000000654e-05,9.500000000000000523e-05,-2.500000000000000120e-05,-1.400000000000000148e-04,1.500000000000000038e-05
8.999999999999999212e-05,2.000000000000000164e-05,-7.000000000000000742e-05,-6.000000000000000152e-05,8.000000000000000654e-05,-2.000000000000000164e-05,6.000000000000000152e-05,1.000000000000000048e-04,1.200000000000000030e-04,-3.000000000000000076e-05,-1.200000000000000030e-04,1.000000000000000082e-05
1.050000000000000044e-04,3.000000000000000076e-05,-7.499999999999999343e-05,-7.000000000000000742e-05,8.999999999999999212e-05,-2.000000000000000164e-05,7.000000000000000742e-05,1.200000000000000030e-04,1.400000000000000148e-04,-1.000000000000000082e-05,-1.000000000000000048e-04,2.000000000000000164e-05
1.200000000000000030e-04,4.000000000000000327e-05,-8.000000000000000654e-05,-8.000000000000000654e-05,1.000000000000000048e-04,-2.000000000000000164e-05,8.000000000000000654e-05,1.400000000000000148e-04,1.600000000000000131e-04,1.000000000000000082e-05,-8.000000000000000654e-05,3.000000000000000076e-05
1.000000000000000048e-04,2.500000000000000120e-05,-7.499999999999999343e-05,-6.000000000000000152e-05,8.500000000000000611e-05,-2.500000000000000120e-05,9.500000000000000523e-05,1.550000000000000000e-04,1.649999999999999991e-04,5.500000000000000196e-05,-5.500000000000000196e-05,6.000000000000000152e-05
8.000000000000000654e-05,1.000000000000000082e-05,-7.000000000000000742e-05,-4.000000000000000327e-05,7.000000000000000742e-05,-3.000000000000000076e-05,1.100000000000000039e-04,1.700000000000000122e-04,1.700000000000000122e-04,1.000000000000000048e-04,-3.000000000000000076e-05,8.999999999999999212e-05
5.500000000000000196e-05,5.000000000000000409e-06,-5.000000000000000240e-05,-3.000000000000000076e-05,5.500000000000000196e-05,-2.500000000000000120e-05,8.999999999999999212e-05,1.600000000000000131e-04,1.600000000000000131e-04,8.999999999999999212e-05,-6.000000000000000152e-05,8.000000000000000654e-05
3.000000000000000076e-05,0.000000000000000000e+00,-3.000000000000000076e-05,-2.000000000000000164e-05,4.000000000000000327e-05,-2.000000000000000164e-05,7.000000000000000742e-05,1.499999999999999869e-04,1.499999999999999869e-04,8.000000000000000654e-05,-8.999999999999999212e-05,7.000000000000000742e-05
6.500000000000000786e-05,1.000000000000000082e-05,-5.500000000000000196e-05,-4.000000000000000327e-05,6.500000000000000786e-05,-2.500000000000000120e-05,6.500000000000000786e-05,1.400000000000000148e-04,1.400000000000000148e-04,5.500000000000000196e-05,-1.050000000000000044e-04,5.000000000000000240e-05
1.000000000000000048e-04,2.000000000000000164e-05,-8.000000000000000654e-05,-6.000000000000000152e-05,8.999999999999999212e-05,-3.000000000000000076e-05,6.000000000000000152e-05,1.300000000000000157e-04,1.300000000000000157e-04,3.000000000000000076e-05,-1.200000000000000030e-04,3.000000000000000076e-05
1.100000000000000039e-04,4.000000000000000327e-05,-7.000000000000000742e-05,-7.499999999999999343e-05,8.999999999999999212e-05,-1.500000000000000038e-05,7.000000000000000742e-05,1.550000000000000000e-04,1.450000000000000009e-04,3.000000000000000076e-05,-1.000000000000000048e-04,3.000000000000000076e-05
1.200000000000000030e-04,6.000000000000000152e-05,-6.000000000000000152e-05,-8.999999999999999212e-05,8.999999999999999212e-05,0.000000000000000000e+00,8.000000000000000654e-05,1.799999999999999842e-04,1.600000000000000131e-04,3.000000000000000076e-05,-8.000000000000000654e-05,3.000000000000000076e-05
1.250000000000000026e-04,5.000000000000000240e-05,-7.499999999999999343e-05,-8.500000000000000611e-05,9.500000000000000523e-05,-1.000000000000000082e-05,8.999999999999999212e-05,2.000000000000000096e-04,1.799999999999999842e-04,5.000000000000000240e-05,-6.000000000000000152e-05,5.000000000000000240e-05
1.300000000000000157e-04,4.000000000000000327e-05,-8.999999999999999212e-05,-8.000000000000000654e-05,1.000000000000000048e-04,-2.000000000000000164e-05,1.000000000000000048e-04,2.200000000000000078e-04,2.000000000000000096e-04,7.000000000000000742e-05,-4.000000000000000327e-05,7.000000000000000742e-05
1.150000000000000035e-04,2.000000000000000164e-05,-9.500000000000000523e-05,-6.500000000000000786e-05,1.000000000000000048e-04,-3.500000000000000371e-05,1.100000000000000039e-04,2.300000000000000070e-04,2.000000000000000096e-04,9.500000000000000523e-05,-2.500000000000000120e-05,8.000000000000000654e-05
1.000000000000000048e-04,0.000000000000000000e+00,-1.000000000000000048e-04,-5.000000000000000240e-05,1.000000000000000048e-04,-5.000000000000000240e-05,1.200000000000000030e-04,2.400000000000000061e-04,2.000000000000000096e-04,1.200000000000000030e-04,-1.000000000000000082e-05,8.999999999999999212e-05
1.000000000000000048e-04,1.000000000000000082e-05,-8.999999999999999212e-05,-5.500000000000000196e-05,9.500000000000000523e-05,-4.000000000000000327e-05,1.100000000000000039e-04,2.400000000000000061e-04,2.000000000000000096e-04,1.100000000000000039e-04,-3.000000000000000076e-05,8.999999999999999212e-05
1.000000000000000048e-04,2.000000000000000164e-05,-8.000000000000000654e-05,-6.000000000000000152e-05,8.999999999999999212e-05,-3.000000000000000076e-05,1.000000000000000048e-04,2.400000000000000061e-04,2.000000000000000096e-04,1.000000000000000048e-04,-5.000000000000000240e-05,8.999999999999999212e-05
1.300000000000000157e-04,4.000000000000000327e-05,-8.999999999999999212e-05,-8.500000000000000611e-05,1.100000000000000039e-04,-2.500000000000000120e-05,8.999999999999999212e-05,2.300000000000000070e-04,1.900000000000000105e-04,8.500000000000000611e-05,-6.500000000000000786e-05,7.499999999999999343e-05
1.600000000000000131e-04,6.000000000000000152e-05,-1.000000000000000048e-04,-1.100000000000000039e-04,1.300000000000000157e-04,-2.000000000000000164e-05,8.000000000000000654e-05,2.200000000000000078e-04,1.799999999999999842e-04,7.000000000000000742e-05,-8.000000000000000654e-05,6.000000000000000152e-05
1.649999999999999991e-04,7.000000000000000742e-05,-9.500000000000000523e-05,-1.150000000000000035e-04,1.250000000000000026e-04,-1.000000000000000082e-05,8.500000000000000611e-05,2.449999999999999921e-04,1.950000000000000236e-04,6.500000000000000786e-05,-6.500000000000000786e-05,6.000000000000000152e-05
1.700000000000000122e-04,8.000000000000000654e-05,-8.999999999999999212e-05,-1.200000000000000030e-04,1.200000000000000030e-04,0.000000000000000000e+00,8.999999999999999212e-05,2.700000000000000035e-04,2.100000000000000087e-04,6.000000000000000152e-05,-5.000000000000000240e-05,6.000000000000000152e-05
1.799999999999999842e-04,9.500000000000000523e-05,-8.500000000000000611e-05,-1.350000000000000017e-04,1.250000000000000026e-04,1.000000000000000082e-05,1.050000000000000044e-04,2.999999999999999737e-04,2.350000000000000201e-04,9.500000000000000523e-05,-1.500000000000000038e-05,7.499999999999999343e-05
1.900000000000000105e-04,1.100000000000000039e-04,-8.000000000000000654e-05,-1.499999999999999869e-04,1.300000000000000157e-04,2.000000000000000164e-05,1.200000000000000030e-04,3.299999999999999982e-04,2.600000000000000314e-04,1.300000000000000157e-04,2.000000000000000164e-05,8.999999999999999212e-05
1.649999999999999991e-04,8.500000000000000611e-05,-8.000000000000000654e-05,-1.250000000000000026e-04,1.200000000000000030e-04,5.000000000000000409e-06,1.350000000000000017e-04,3.400000000000000244e-04,2.700000000000000035e-04,1.649999999999999991e-04,4.499999999999999606e-05,1.150000000000000035e-04
1.400000000000000148e-04,6.000000000000000152e-05,-8.000000000000000654e-05,-1.000000000000000048e-04,1.100000000000000039e-04,-1.000000000000000082e-05,1.499999999999999869e-04,3.500000000000000507e-04,2.800000000000000297e-04,2.000000000000000096e-04,7.000000000000000742e-05,1.400000000000000148e-04
1.499999999999999869e-04,7.000000000000000742e-05,-8.000000000000000654e-05,-1.100000000000000039e-04,1.150000000000000035e-04,-5.000000000000000409e-06,1.350000000000000017e-04,3.550000000000000096e-04,2.800000000000000297e-04,1.950000000000000236e-04,5.000000000000000240e-05,1.350000000000000017e-04
1.600000000000000131e-04,8.000000000000000654e-05,-8.000000000000000654e-05,-1.200000000000000030e-04,1.200000000000000030e-04,0.000000000000000000e+00,1.200000000000000030e-04,3.599999999999999685e-04,2.800000000000000297e-04,1.900000000000000105e-04,3.000000000000000076e-05,1.300000000000000157e-04
1.700000000000000122e-04,8.999999999999999212e-05,-8.000000000000000654e-05,-1.300000000000000157e-04,1.250000000000000026e-04,5.000000000000000409e-06,1.200000000000000030e-04,3.550000000000000096e-04,2.650000000000000445e-04,1.750000000000000253e-04,1.500000000000000038e-05,1.200000000000000030e-04
1.799999999999999842e-04,1.000000000000000048e-04,-8.000000000000000654e-05,-1.400000000000000148e-04,1.300000000000000157e-04,1.000000000000000082e-05,1.200000000000000030e-04,3.500000000000000507e-04,2.500000000000000052e-04,1.600000000000000131e-04,0.000000000000000000e+00,1.100000000000000039e-04
1.900000000000000105e-04,1.200000000000000030e-04,-7.000000000000000742e-05,-1.550000000000000000e-04,1.300000000000000157e-04,2.500000000000000120e-05,1.200000000000000030e-04,3.699999999999999947e-04,2.650000000000000445e-04,1.600000000000000131e-04,1.000000000000000082e-05,1.100000000000000039e-04
2.000000000000000096e-04,1.400000000000000148e-04,-6.000000000000000152e-05,-1.700000000000000122e-04,1.300000000000000157e-04,4.000000000000000327e-05,1.200000000000000030e-04,3.900000000000000471e-04,2.800000000000000297e-04,1.600000000000000131e-04,2.000000000000000164e-05,1.100000000000000039e-04
2.050000000000000227e-04,1.499999999999999869e-04,-5.500000000000000196e-05,-1.750000000000000253e-04,1.250000000000000026e-04,5.000000000000000240e-05,1.300000000000000157e-04,4.100000000000000454e-04,2.950000000000000148e-04,1.849999999999999973e-04,5.500000000000000196e-05,1.250000000000000026e-04
2.100000000000000087e-04,1.600000000000000131e-04,-5.000000000000000240e-05,-1.799999999999999842e-04,1.200000000000000030e-04,6.000000000000000152e-05,1.400000000000000148e-04,4.299999999999999894e-04,3.099999999999999999e-04,2.100000000000000087e-04,8.999999999999999212e-05,1.400000000000000148e-04
1.950000000000000236e-04,1.300000000000000157e-04,-6.500000000000000786e-05,-1.600000000000000131e-04,1.250000000000000026e-04,3.500000000000000371e-05,1.550000000000000000e-04,4.350000000000000026e-04,3.250000000000000393e-04,2.449999999999999921e-04,1.050000000000000044e-04,1.550000000000000000e-04
1.799999999999999842e-04,1.000000000000000048e-04,-8.000000000000000654e-05,-1.400000000000000148e-04,1.300000000000000157e-04,1.000000000000000082e-05,1.700000000000000122e-04,4.400000000000000157e-04,3.400000000000000244e-04,2.800000000000000297e-04,1.200000000000000030e-04,1.700000000000000122e-04
1.900000000000000105e-04,1.200000000000000030e-04,-7.000000000000000742e-05,-1.550000000000000000e-04,1.300000000000000157e-04,2.500000000000000120e-05,1.550000000000000000e-04,4.299999999999999894e-04,3.299999999999999982e-04,2.650000000000000445e-04,8.999999999999999212e-05,1.600000000000000131e-04
2.000000000000000096e-04,1.400000000000000148e-04,-6.000000000000000152e-05,-1.700000000000000122e-04,1.300000000000000157e-04,4.000000000000000327e-05,1.400000000000000148e-04,4.200000000000000174e-04,3.200000000000000262e-04,2.500000000000000052e-04,6.000000000000000152e-05,1.499999999999999869e-04
2.200000000000000078e-04,1.400000000000000148e-04,-8.000000000000000654e-05,-1.799999999999999842e-04,1.499999999999999869e-04,3.000000000000000076e-05,1.350000000000000017e-04,4.150000000000000585e-04,2.999999999999999737e-04,2.449999999999999921e-04,5.500000000000000196e-05,1.499999999999999869e-04
2.400000000000000061e-04,1.400000000000000148e-04,-1.000000000000000048e-04,-1.900000000000000105e-04,1.700000000000000122e-04,2.000000000000000164e-05,1.300000000000000157e-04,4.100000000000000454e-04,2.800000000000000297e-04,2.400000000000000061e-04,5.000000000000000240e-05,1.499999999999999869e-04
2.400000000000000061e-04,1.600000000000000131e-04,-8.000000000000000654e-05,-2.000000000000000096e-04,1.600000000000000131e-04,4.000000000000000327e-05,1.350000000000000017e-04,4.249999999999999763e-04,2.999999999999999737e-04,2.350000000000000201e-04,6.500000000000000786e-05,1.499999999999999869e-04
2.400000000000000061e-04,1.799999999999999842e-04,-6.000000000000000152e-05,-2.100000000000000087e-04,1.499999999999999869e-04,6.000000000000000152e-05,1.400000000000000148e-04,4.400000000000000157e-04,3.200000000000000262e-04,2.300000000000000070e-04,8.000000000000000654e-05,1.499999999999999869e-04
2.400000000000000061e-04,2.000000000000000096e-04,-4.000000000000000327e-05,-2.200000000000000078e-04,1.400000000000000148e-04,8.000000000000000654e-05,1.350000000000000017e-04,4.400000000000000157e-04,3.200000000000000262e-04,2.400000000000000061e-04,9.500000000000000523e-05,1.550000000000000000e-04
2.400000000000000061e-04,2.200000000000000078e-04,-2.000000000000000164e-05,-2.300000000000000070e-04,1.300000000000000157e-04,1.000000000000000048e-04,1.300000000000000157e-04,4.400000000000000157e-04,3.200000000000000262e-04,2.500000000000000052e-04,1.100000000000000039e-04,1.600000000000000131e-04
2.250000000000000209e-04,1.799999999999999842e-04,-4.499999999999999606e-05,-2.050000000000000227e-04,1.350000000000000017e-04,7.000000000000000742e-05,1.499999999999999869e-04,4.500000000000000419e-04,3.299999999999999982e-04,2.900000000000000017e-04,1.350000000000000017e-04,1.849999999999999973e-04
2.100000000000000087e-04,1.400000000000000148e-04,-7.000000000000000742e-05,-1.799999999999999842e-04,1.400000000000000148e-04,4.000000000000000327e-05,1.700000000000000122e-04,4.600000000000000139e-04,3.400000000000000244e-04,3.299999999999999982e-04,1.600000000000000131e-04,2.100000000000000087e-04
2.050000000000000227e-04,1.300000000000000157e-04,-7.499999999999999343e-05,-1.700000000000000122e-04,1.400000000000000148e-04,3.000000000000000076e-05,1.600000000000000131e-04,4.450000000000000288e-04,3.250000000000000393e-04,3.200000000000000262e-04,1.350000000000000017e-04,2.100000000000000087e-04
2.000000000000000096e-04,1.200000000000000030e-04,-8.000000000000000654e-05,-1.600000000000000131e-04,1.400000000000000148e-04,2.000000000000000164e-05,1.499999999999999869e-04,4.299999999999999894e-04,3.099999999999999999e-04,3.099999999999999999e-04,1.100000000000000039e-04,2.100000000000000087e-04
2.200000000000000078e-04,1.499999999999999869e-04,-7.000000000000000742e-05,-1.849999999999999973e-04,1.450000000000000009e-04,4.000000000000000327e-05,1.450000000000000009e-04,4.150000000000000585e-04,2.850000000000000428e-04,2.850000000000000428e-04,9.500000000000000523e-05,1.950000000000000236e-04
2.400000000000000061e-04,1.799999999999999842e-04,-6.000000000000000152e-05,-2.100000000000000087e-04,1.499999999999999869e-04,6.000000000000000152e-05,1.400000000000000148e-04,4.000000000000000192e-04,2.600000000000000314e-04,2.600000000000000314e-04,8.000000000000000654e-05,1.799999999999999842e-04
2.500000000000000052e-04,1.950000000000000236e-04,-5.500000000000000196e-05,-2.250000000000000209e-04,1.550000000000000000e-04,7.000000000000000742e-05,1.300000000000000157e-04,3.900000000000000471e-04,2.550000000000000183e-04,2.550000000000000183e-04,8.999999999999999212e-05,1.750000000000000253e-04
2.600000000000000314e-04,2.100000000000000087e-04,-5.000000000000000240e-05,-2.400000000000000061e-04,1.600000000000000131e-04,8.000000000000000654e-05,1.200000000000000030e-04,3.800000000000000209e-04,2.500000000000000052e-04,2.500000000000000052e-04,1.000000000000000048e-04,1.700000000000000122e-04
2.300000000000000070e-04,1.950000000000000236e-04,-3.500000000000000371e-05,-2.149999999999999947e-04,1.350000000000000017e-04,8.000000000000000654e-05,1.250000000000000026e-04,3.850000000000000340e-04,2.500000000000000052e-04,2.550000000000000183e-04,1.150000000000000035e-04,1.799999999999999842e-04
2.000000000000000096e-04,1.799999999999999842e-04,-2.000000000000000164e-05,-1.900000000000000105e-04,1.100000000000000039e-04,8.000000000000000654e-05,1.300000000000000157e-04,3.900000000000000471e-04,2.500000000000000052e-04,2.600000000000000314e-04,1.300000000000000157e-04,1.900000000000000105e-04
2.000000000000000096e-04,1.700000000000000122e-04,-3.000000000000000076e-05,-1.849999999999999973e-04,1.150000000000000035e-04,7.000000000000000742e-05,1.499999999999999869e-04,3.850000000000000340e-04,2.550000000000000183e-04,2.850000000000000428e-04,1.450000000000000009e-04,2.050000000000000227e-04
2.000000000000000096e-04,1.600000000000000131e-04,-4.000000000000000327e-05,-1.799999999999999842e-04,1.200000000000000030e-04,6.000000000000000152e-05,1.700000000000000122e-04,3.800000000000000209e-04,2.600000000000000314e-04,3.099999999999999999e-04,1.600000000000000131e-04,2.200000000000000078e-04
1.900000000000000105e-04,1.600000000000000131e-04,-3.000000000000000076e-05,-1.750000000000000253e-04,1.100000000000000039e-04,6.500000000000000786e-05,1.450000000000000009e-04,3.400000000000000244e-04,2.250000000000000209e-04,2.850000000000000428e-04,1.200000000000000030e-04,2.050000000000000227e-04
1.799999999999999842e-04,1.600000000000000131e-04,-2.000000000000000164e-05,-1.700000000000000122e-04,1.000000000000000048e-04,7.000000000000000742e-05,1.200000000000000030e-04,2.999999999999999737e-04,1.900000000000000105e-04,2.600000000000000314e-04,8.000000000000000654e-05,1.900000000000000105e-04
1.799999999999999842e-04,1.600000000000000131e-04,-2.000000000000000164e-05,-1.700000000000000122e-04,1.000000000000000048e-04,7.000000000000000742e-05,1.100000000000000039e-04,2.750000000000000166e-04,1.550000000000000000e-04,2.350000000000000201e-04,6.000000000000000152e-05,1.750000000000000253e-04
1.799999999999999842e-04,1.600000000000000131e-04,-2.000000000000000164e-05,-1.700000000000000122e-04,1.000000000000000048e-04,7.000000000000000742e-05,1.000000000000000048e-04,2.500000000000000052e-04,1.200000000000000030e-04,2.100000000000000087e-04,4.000000000000000327e-05,1.600000000000000131e-04
1.900000000000000105e-04,1.750000000000000253e-04,-1.500000000000000038e-05,-1.849999999999999973e-04,1.050000000000000044e-04,8.000000000000000654e-05,9.500000000000000523e-05,2.400000000000000061e-04,1.150000000000000035e-04,1.900000000000000105e-04,4.499999999999999606e-05,1.550000000000000000e-04
2.000000000000000096e-04,1.900000000000000105e-04,-1.000000000000000082e-05,-2.000000000000000096e-04,1.100000000000000039e-04,8.999999999999999212e-05,8.999999999999999212e-05,2.300000000000000070e-04,1.100000000000000039e-04,1.700000000000000122e-04,5.000000000000000240e-05,1.499999999999999869e-04
1.900000000000000105e-04,1.750000000000000253e-04,-1.500000000000000038e-05,-1.849999999999999973e-04,1.050000000000000044e-04,8.000000000000000654e-05,1.050000000000000044e-04,2.250000000000000209e-04,1.050000000000000044e-04,1.799999999999999842e-04,6.500000000000000786e-05,1.600000000000000131e-04
1.799999999999999842e-04,1.600000000000000131e-04,-2.000000000000000164e-05,-1.700000000000000122e-04,1.000000000000000048e-04,7.000000000000000742e-05,1.200000000000000030e-04,2.200000000000000078e-04,1.000000000000000048e-04,1.900000000000000105e-04,8.000000000000000654e-05,1.700000000000000122e-04
1.750000000000000253e-04,1.400000000000000148e-04,-3.500000000000000371e-05,-1.550000000000000000e-04,1.000000000000000048e-04,5.500000000000000196e-05,1.150000000000000035e-04,2.000000000000000096e-04,8.500000000000000611e-05,1.950000000000000236e-04,7.000000000000000742e-05,1.700000000000000122e-04
1.700000000000000122e-04,1.200000000000000030e-04,-5.000000000000000240e-05,-1.400000000000000148e-04,1.000000000000000048e-04,4.000000000000000327e-05,1.100000000000000039e-04,1.799999999999999842e-04,7.000000000000000742e-05,2.000000000000000096e-04,6.000000000000000152e-05,1.700000000000000122e-04
1.350000000000000017e-04,1.100000000000000039e-04,-2.500000000000000120e-05,-1.200000000000000030e-04,7.499999999999999343e-05,4.499999999999999606e-05,1.000000000000000048e-04,1.600000000000000131e-04,4.000000000000000327e-05,1.799999999999999842e-04,4.499999999999999606e-05,1.649999999999999991e-04
1.000000000000000048e-04,1.000000000000000048e-04,0.000000000000000000e+00,-1.000000000000000048e-04,5.000000000000000240e-05,5.000000000000000240e-05,8.999999999999999212e-05,1.400000000000000148e-04,1.000000000000000082e-05,1.600000000000000131e-04,3.000000000000000076e-05,1.600000000000000131e-04
1.100000000000000039e-04,1.000000000000000048e-04,-1.000000000000000082e-05,-1.050000000000000044e-04,6.000000000000000152e-05,4.499999999999999606e-05,7.499999999999999343e-05,1.050000000000000044e-04,-2.500000000000000120e-05,1.250000000000000026e-04,-5.000000000000000409e-06,1.300000000000000157e-04
1.200000000000000030e-04,1.000000000000000048e-04,-2.000000000000000164e-05,-1.100000000000000039e-04,7.000000000000000742e-05,4.000000000000000327e-05,6.000000000000000152e-05,7.000000000000000742e-05,-6.000000000000000152e-05,8.999999999999999212e-05,-4.000000000000000327e-05,1.000000000000000048e-04
1.200000000000000030e-04,1.000000000000000048e-04,-2.000000000000000164e-05,-1.100000000000000039e-04,7.000000000000000742e-05,4.000000000000000327e-05,5.500000000000000196e-05,6.500000000000000786e-05,-7.000000000000000742e-05,7.000000000000000742e-05,-5.000000000000000240e-05,8.500000000000000611e-05
1.200000000000000030e-04,1.000000000000000048e-04,-2.000000000000000164e-05,-1.100000000000000039e-04,7.000000000000000742e-05,4.000000000000000327e-05,5.000000000000000240e-05,6.000000000000000152e-05,-8.000000000000000654e-05,5.000000000000000240e-05,-6.000000000000000152e-05,7.000000000000000742e-05
1.200000000000000030e-04,1.100000000000000039e-04,-1.000000000000000082e-05,-1.150000000000000035e-04,6.500000000000000786e-05,5.000000000000000240e-05,6.500000000000000786e-05,5.500000000000000196e-05,-8.999999999999999212e-05,5.000000000000000240e-05,-4.000000000000000327e-05,8.000000000000000654e-05
1.200000000000000030e-04,1.200000000000000030e-04,0.000000000000000000e+00,-1.200000000000000030e-04,6.000000000000000152e-05,6.000000000000000152e-05,8.000000000000000654e-05,5.000000000000000240e-05,-1.000000000000000048e-04,5.000000000000000240e-05,-2.000000000000000164e-05,8.999999999999999212e-05
1.000000000000000048e-04,7.000000000000000742e-05,-3.000000000000000076e-05,-8.500000000000000611e-05,6.500000000000000786e-05,2.000000000000000164e-05,8.500000000000000611e-05,4.499999999999999606e-05,-1.050000000000000044e-04,7.000000000000000742e-05,-2.000000000000000164e-05,1.050000000000000044e-04
8.000000000000000654e-05,2.000000000000000164e-05,-6.000000000000000152e-05,-5.000000000000000240e-05,7.000000000000000742e-05,-2.000000000000000164e-05,8.999999999999999212e-05,4.000000000000000327e-05,-1.100000000000000039e-04,8.999999999999999212e-05,-2.000000000000000164e-05,1.200000000000000030e-04
8.999999999999999212e-05,2.000000000000000164e-05,-7.000000000000000742e-05,-5.500000000000000196e-05,8.000000000000000654e-05,-2.500000000000000120e-05,7.499999999999999343e-05,5.000000000000000409e-06,-1.450000000000000009e-04,6.500000000000000786e-05,-5.000000000000000240e-05,1.050000000000000044e-04
1.000000000000000048e-04,2.000000000000000164e-05,-8.000000000000000654e-05,-6.000000000000000152e-05,8.999999999999999212e-05,-3.000000000000000076e-05,6.000000000000000152e-05,-3.000000000000000076e-05,-1.799999999999999842e-04,4.000000000000000327e-05,-8.000000000000000654e-05,8.999999999999999212e-05
8.000000000000000654e-05,1.500000000000000038e-05,-6.500000000000000786e-05,-5.000000000000000240e-05,7.499999999999999343e-05,-2.500000000000000120e-05,4.499999999999999606e-05,-5.000000000000000240e-05,-2.149999999999999947e-04,0.000000000000000000e+00,-1.150000000000000035e-04,7.000000000000000742e-05
6.000000000000000152e-05,1.000000000000000082e-05,-5.000000000000000240e-05,-4.000000000000000327e-05,6.000000000000000152e-05,-2.000000000000000164e-05,3.000000000000000076e-05,-7.000000000000000742e-05,-2.500000000000000052e-04,-4.000000000000000327e-05,-1.499999999999999869e-04,5.000000000000000240e-05
7.000000000000000742e-05,3.500000000000000371e-05,-3.500000000000000371e-05,-5.500000000000000196e-05,5.500000000000000196e-05,0.000000000000000000e+00,4.000000000000000327e-05,-6.000000000000000152e-05,-2.500000000000000052e-04,-5.000000000000000240e-05,-1.400000000000000148e-04,4.499999999999999606e-05
8.000000000000000654e-05,6.000000000000000152e-05,-2.000000000000000164e-05,-7.000000000000000742e-05,5.000000000000000240e-05,2.000000000000000164e-05,5.000000000000000240e-05,-5.000000000000000240e-05,-2.500000000000000052e-04,-6.000000000000000152e-05,-1.300000000000000157e-04,4.000000000000000327e-05
8.999999999999999212e-05,4.499999999999999606e-05,-4.499999999999999606e-05,-6.500000000000000786e-05,6.500000000000000786e-05,0.000000000000000000e+00,5.000000000000000240e-05,-5.000000000000000240e-05,-2.550000000000000183e-04,-5.000000000000000240e-05,-1.100000000000000039e-04,5.000000000000000240e-05
1.000000000000000048e-04,3.000000000000000076e-05,-7.000000000000000742e-05,-6.000000000000000152e-05,8.000000000000000654e-05,-2.000000000000000164e-05,5.000000000000000240e-05,-5.000000000000000240e-05,-2.600000000000000314e-04,-4.000000000000000327e-05,-8.999999999999999212e-05,6.000000000000000152e-05
6.500000000000000786e-05,5.000000000000000409e-06,-6.000000000000000152e-05,-3.000000000000000076e-05,6.000000000000000152e-05,-3.000000000000000076e-05,6.500000000000000786e-05,-5.000000000000000240e-05,-2.600000000000000314e-04,-2.000000000000000164e-05,-8.000000000000000654e-05,8.000000000000000654e-05
3.000000000000000076e-05,-2.000000000000000164e-05,-5.000000000000000240e-05,0.000000000000000000e+00,4.000000000000000327e-05,-4.000000000000000327e-05,8.000000000000000654e-05,-5.000000000000000240e-05,-2.600000000000000314e-04,0.000000000000000000e+00,-7.000000000000000742e-05,1.000000000000000048e-04
2.500000000000000120e-05,-2.000000000000000164e-05,-4.499999999999999606e-05,0.000000000000000000e+00,3.500000000000000371e-05,-3.500000000000000371e-05,7.000000000000000742e-05,-6.500000000000000786e-05,-2.800000000000000297e-04,-2.500000000000000120e-05,-1.050000000000000044e-04,7.499999999999999343e-05
2.000000000000000164e-05,-2.000000000000000164e-05,-4.000000000000000327e-05,0.000000000000000000e+00,3.000000000000000076e-05,-3.000000000000000076e-05,6.000000000000000152e-05,-8.000000000000000654e-05,-2.999999999999999737e-04,-5.000000000000000240e-05,-1.400000000000000148e-04,5.000000000000000240e-05
4.000000000000000327e-05,-1.000000000000000082e-05,-5.000000000000000240e-05,-1.500000000000000038e-05,4.499999999999999606e-05,-3.000000000000000076e-05,5.000000000000000240e-05,-1.000000000000000048e-04,-3.400000000000000244e-04,-7.000000000000000742e-05,-1.600000000000000131e-04,4.000000000000000327e-05
6.000000000000000152e-05,0.000000000000000000e+00,-6.000000000000000152e-05,-3.000000000000000076e-05,6.000000000000000152e-05,-3.000000000000000076e-05,4.000000000000000327e-05,-1.200000000000000030e-04,-3.800000000000000209e-04,-8.999999999999999212e-05,-1.799999999999999842e-04,3.000000000000000076e-05
5.500000000000000196e-05,0.000000000000000000e+00,-5.500000000000000196e-05,-2.500000000000000120e-05,5.000000000000000240e-05,-2.500000000000000120e-05,3.000000000000000076e-05,-1.200000000000000030e-04,-3.800000000000000209e-04,-1.100000000000000039e-04,-1.799999999999999842e-04,1.500000000000000038e-05
5.000000000000000240e-05,0.000000000000000000e+00,-5.000000000000000240e-05,-2.000000000000000164e-05,4.000000000000000327e-05,-2.000000000000000164e-05,2.000000000000000164e-05,-1.200000000000000030e-04,-3.800000000000000209e-04,-1.300000000000000157e-04,-1.799999999999999842e-04,0.000000000000000000e+00
4.499999999999999606e-05,1.000000000000000082e-05,-3.500000000000000371e-05,-2.500000000000000120e-05,3.500000000000000371e-05,-1.000000000000000082e-05,3.000000000000000076e-05,-1.100000000000000039e-04,-3.699999999999999947e-04,-1.200000000000000030e-04,-1.600000000000000131e-04,1.500000000000000038e-05
4.000000000000000327e-05,2.000000000000000164e-05,-2.000000000000000164e-05,-3.000000000000000076e-05,3.000000000000000076e-05,0.000000000000000000e+00,4.000000000000000327e-05,-1.000000000000000048e-04,-3.599999999999999685e-04,-1.100000000000000039e-04,-1.400000000000000148e-04,3.000000000000000076e-05
4.000000000000000327e-05,1.000000000000000082e-05,-3.000000000000000076e-05,-2.500000000000000120e-05,3.500000000000000371e-05,-1.000000000000000082e-05,5.500000000000000196e-05,-8.999999999999999212e-05,-3.599999999999999685e-04,-8.000000000000000654e-05,-1.200000000000000030e-04,5.000000000000000240e-05
4.000000000000000327e-05,0.000000000000000000e+00,-4.000000000000000327e-05,-2.000000000000000164e-05,4.000000000000000327e-05,-2.000000000000000164e-05,7.000000000000000742e-05,-8.000000000000000654e-05,-3.599999999999999685e-04,-5.000000000000000240e-05,-1.000000000000000048e-04,7.000000000000000742e-05
2.500000000000000120e-05,-2.000000000000000164e-05,-4.499999999999999606e-05,0.000000000000000000e+00,3.000000000000000076e-05,-3.000000000000000076e-05,6.000000000000000152e-05,-9.500000000000000523e-05,-3.750000000000000078e-04,-6.000000000000000152e-05,-1.300000000000000157e-04,6.000000000000000152e-05
1.000000000000000082e-05,-4.000000000000000327e-05,-5.000000000000000240e-05,2.000000000000000164e-05,2.000000000000000164e-05,-4.000000000000000327e-05,5.000000000000000240e-05,-1.100000000000000039e-04,-3.900000000000000471e-04,-7.000000000000000742e-05,-1.600000000000000131e-04,5.000000000000000240e-05
2.500000000000000120e-05,-3.000000000000000076e-05,-5.500000000000000196e-05,5.000000000000000409e-06,3.500000000000000371e-05,-4.000000000000000327e-05,4.000000000000000327e-05,-1.300000000000000157e-04,-4.249999999999999763e-04,-9.500000000000000523e-05,-1.849999999999999973e-04,3.500000000000000371e-05
4.000000000000000327e-05,-2.000000000000000164e-05,-6.000000000000000152e-05,-1.000000000000000082e-05,5.000000000000000240e-05,-4.000000000000000327e-05,3.000000000000000076e-05,-1.499999999999999869e-04,-4.600000000000000139e-04,-1.200000000000000030e-04,-2.100000000000000087e-04,2.000000000000000164e-05
5.000000000000000240e-05,1.000000000000000082e-05,-4.000000000000000327e-05,-3.000000000000000076e-05,4.499999999999999606e-05,-1.500000000000000038e-05,2.500000000000000120e-05,-1.450000000000000009e-04,-4.600000000000000139e-04,-1.350000000000000017e-04,-2.050000000000000227e-04,5.000000000000000409e-06
6.000000000000000152e-05,4.000000000000000327e-05,-2.000000000000000164e-05,-5.000000000000000240e-05,4.000000000000000327e-05,1.000000000000000082e-05,2.000000000000000164e-05,-1.400000000000000148e-04,-4.600000000000000139e-04,-1.499999999999999869e-04,-2.000000000000000096e-04,-1.000000000000000082e-05
5.500000000000000196e-05,3.500000000000000371e-05,-2.000000000000000164e-05,-4.499999999999999606e-05,4.000000000000000327e-05,5.000000000000000409e-06,2.500000000000000120e-05,-1.200000000000000030e-04,-4.450000000000000288e-04,-1.350000000000000017e-04,-1.750000000000000253e-04,5.000000000000000409e-06
5.000000000000000240e-05,3.000000000000000076e-05,-2.000000000000000164e-05,-4.000000000000000327e-05,4.000000000000000327e-05,0.000000000000000000e+00,3.000000000000000076e-05,-1.000000000000000048e-04,-4.299999999999999894e-04,-1.200000000000000030e-04,-1.499999999999999869e-04,2.000000000000000164e-05
3.500000000000000371e-05,-5.000000000000000409e-06,-4.000000000000000327e-05,-1.500000000000000038e-05,4.000000000000000327e-05,-2.500000000000000120e-05,4.499999999999999606e-05,-8.999999999999999212e-05,-4.249999999999999763e-04,-9.500000000000000523e-05,-1.300000000000000157e-04,4.499999999999999606e-05
2.000000000000000164e-05,-4.000000000000000327e-05,-6.000000000000000152e-05,1.000000000000000082e-05,4.000000000000000327e-05,-5.000000000000000240e-05,6.000000000000000152e-05,-8.000000000000000654e-05,-4.200000000000000174e-04,-7.000000000000000742e-05,-1.100000000000000039e-04,7.000000000000000742e-05
5.000000000000000409e-06,-5.000000000000000240e-05,-5.500000000000000196e-05,2.500000000000000120e-05,3.000000000000000076e-05,-5.500000000000000196e-05,5.500000000000000196e-05,-1.000000000000000048e-04,-4.450000000000000288e-04,-8.000000000000000654e-05,-1.400000000000000148e-04,6.000000000000000152e-05
-1.000000000000000082e-05,-6.000000000000000152e-05,-5.000000000000000240e-05,4.000000000000000327e-05,2.000000000000000164e-05,-6.000000000000000152e-05,5.000000000000000240e-05,-1.200000000000000030e-04,-4.700000000000000401e-04,-8.999999999999999212e-05,-1.700000000000000122e-04,5.000000000000000240e-05
5.000000000000000409e-06,-4.000000000000000327e-05,-4.499999999999999606e-05,2.000000000000000164e-05,2.500000000000000120e-05,-4.499999999999999606e-05,4.000000000000000327e-05,-1.300000000000000157e-04,-4.949999999999999973e-04,-1.200000000000000030e-04,-1.950000000000000236e-04,3.000000000000000076e-05
2.000000000000000164e-05,-2.000000000000000164e-05,-4.000000000000000327e-05,0.000000000000000000e+00,3.000000000000000076e-05,-3.000000000000000076e-05,3.000000000000000076e-05,-1.400000000000000148e-04,-5.200000000000000629e-04,-1.499999999999999869e-04,-2.200000000000000078e-04,1.000000000000000082e-05
4.000000000000000327e-05,0.000000000000000000e+00,-4.000000000000000327e-05,-2.000000000000000164e-05,4.000000000000000327e-05,-2.000000000000000164e-05,3.000000000000000076e-05,-1.250000000000000026e-04,-5.150000000000000498e-04,-1.450000000000000009e-04,-1.950000000000000236e-04,1.500000000000000038e-05
6.000000000000000152e-05,2.000000000000000164e-05,-4.000000000000000327e-05,-4.000000000000000327e-05,5.000000000000000240e-05,-1.000000000000000082e-05,3.000000000000000076e-05,-1.100000000000000039e-04,-5.100000000000000366e-04,-1.400000000000000148e-04,-1.700000000000000122e-04,2.000000000000000164e-05
6.500000000000000786e-05,3.500000000000000371e-05,-3.000000000000000076e-05,-5.000000000000000240e-05,4.499999999999999606e-05,5.000000000000000409e-06,4.000000000000000327e-05,-9.500000000000000523e-05,-5.000000000000000104e-04,-1.300000000000000157e-04,-1.550000000000000000e-04,3.000000000000000076e-05
7.000000000000000742e-05,5.000000000000000240e-05,-2.000000000000000164e-05,-6.000000000000000152e-05,4.000000000000000327e-05,2.000000000000000164e-05,5.000000000000000240e-05,-8.000000000000000654e-05,-4.899999999999999842e-04,-1.200000000000000030e-04,-1.400000000000000148e-04,4.000000000000000327e-05
5.500000000000000196e-05,2.500000000000000120e-05,-3.000000000000000076e-05,-4.000000000000000327e-05,4.000000000000000327e-05,0.000000000000000000e+00,6.000000000000000152e-05,-7.000000000000000742e-05,-4.849999999999999711e-04,-9.500000000000000523e-05,-1.200000000000000030e-04,5.500000000000000196e-05
4.000000000000000327e-05,0.000000000000000000e+00,-4.000000000000000327e-05,-2.000000000000000164e-05,4.000000000000000327e-05,-2.000000000000000164e-05,7.000000000000000742e-05,-6.000000000000000152e-05,-4.800000000000000122e-04,-7.000000000000000742e-05,-1.000000000000000048e-04,7.000000000000000742e-05
2.500000000000000120e-05,1.000000000000000082e-05,-1.500000000000000038e-05,-2.000000000000000164e-05,2.000000000000000164e-05,0.000000000000000000e+00,5.500000000000000196e-05,-8.500000000000000611e-05,-5.050000000000000235e-04,-8.000000000000000654e-05,-1.250000000000000026e-04,6.500000000000000786e-05
1.000000000000000082e-05,2.000000000000000164e-05,1.000000000000000082e-05,-2.000000000000000164e-05,0.000000000000000000e+00,2.000000000000000164e-05,4.000000000000000327e-05,-1.100000000000000039e-04,-5.300000000000000891e-04,-8.999999999999999212e-05,-1.499999999999999869e-04,6.000000000000000152e-05
1.000000000000000082e-05,1.500000000000000038e-05,5.000000000000000409e-06,-1.500000000000000038e-05,5.000000000000000409e-06,1.000000000000000082e-05,3.500000000000000371e-05,-1.100000000000000039e-04,-5.450000000000000200e-04,-1.150000000000000035e-04,-1.700000000000000122e-04,4.499999999999999606e-05
1.000000000000000082e-05,1.000000000000000082e-05,0.000000000000000000e+00,-1.000000000000000082e-05,1.000000000000000082e-05,0.000000000000000000e+00,3.000000000000000076e-05,-1.100000000000000039e-04,-5.600000000000000594e-04,-1.400000000000000148e-04,-1.900000000000000105e-04,3.000000000000000076e-05
4.000000000000000327e-05,3.000000000000000076e-05,-1.000000000000000082e-05,-3.500000000000000371e-05,2.500000000000000120e-05,1.000000000000000082e-05,3.500000000000000371e-05,-1.050000000000000044e-04,-5.600000000000000594e-04,-1.350000000000000017e-04,-1.750000000000000253e-04,3.000000000000000076e-05
7.000000000000000742e-05,5.000000000000000240e-05,-2.000000000000000164e-05,-6.000000000000000152e-05,4.000000000000000327e-05,2.000000000000000164e-05,4.000000000000000327e-05,-1.000000000000000048e-04,-5.600000000000000594e-04,-1.300000000000000157e-04,-1.600000000000000131e-04,3.000000000000000076e-05
5.500000000000000196e-05,4.000000000000000327e-05,-1.500000000000000038e-05,-5.000000000000000240e-05,3.500000000000000371e-05,1.500000000000000038e-05,4.499999999999999606e-05,-8.000000000000000654e-05,-5.450000000000000200e-04,-1.150000000000000035e-04,-1.400000000000000148e-04,4.000000000000000327e-05
4.000000000000000327e-05,3.000000000000000076e-05,-1.000000000000000082e-05,-4.000000000000000327e-05,3.000000000000000076e-05,1.000000000000000082e-05,5.000000000000000240e-05,-6.000000000000000152e-05,-5.300000000000000891e-04,-1.000000000000000048e-04,-1.200000000000000030e-04,5.000000000000000240e-05
3.000000000000000076e-05,1.500000000000000038e-05,-1.500000000000000038e-05,-2.500000000000000120e-05,2.500000000000000120e-05,0.000000000000000000e+00,6.000000000000000152e-05,-5.500000000000000196e-05,-5.300000000000000891e-04,-7.000000000000000742e-05,-1.050000000000000044e-04,6.500000000000000786e-05
2.000000000000000164e-05,0.000000000000000000e+00,-2.000000000000000164e-05,-1.000000000000000082e-05,2.000000000000000164e-05,-1.000000000000000082e-05,7.000000000000000742e-05,-5.000000000000000240e-05,-5.300000000000000891e-04,-4.000000000000000327e-05,-8.999999999999999212e-05,8.000000000000000654e-05
5.000000000000000409e-06,-2.000000000000000164e-05,-2.500000000000000120e-05,5.000000000000000409e-06,2.000000000000000164e-05,-2.500000000000000120e-05,5.000000000000000240e-05,-7.000000000000000742e-05,-5.450000000000000200e-04,-6.000000000000000152e-05,-1.250000000000000026e-04,7.000000000000000742e-05
-1.000000000000000082e-05,-4.000000000000000327e-05,-3.000000000000000076e-05,2.000000000000000164e-05,2.000000000000000164e-05,-4.000000000000000327e-05,3.000000000000000076e-05,-8.999999999999999212e-05,-5.600000000000000594e-04,-8.000000000000000654e-05,-1.600000000000000131e-04,6.000000000000000152e-05
1.500000000000000038e-05,-1.000000000000000082e-05,-2.500000000000000120e-05,-5.000000000000000409e-06,2.500000000000000120e-05,-2.000000000000000164e-05,3.000000000000000076e-05,-9.500000000000000523e-05,-5.750000000000000987e-04,-1.050000000000000044e-04,-1.700000000000000122e-04,5.500000000000000196e-05
4.000000000000000327e-05,2.000000000000000164e-05,-2.000000000000000164e-05,-3.000000000000000076e-05,3.000000000000000076e-05,0.000000000000000000e+00,3.000000000000000076e-05,-1.000000000000000048e-04,-5.900000000000000296e-04,-1.300000000000000157e-04,-1.799999999999999842e-04,5.000000000000000240e-05
6.000000000000000152e-05,5.000000000000000240e-05,-1.000000000000000082e-05,-5.500000000000000196e-05,3.500000000000000371e-05,2.000000000000000164e-05,2.500000000000000120e-05,-9.500000000000000523e-05,-6.049999999999999606e-04,-1.400000000000000148e-04,-1.750000000000000253e-04,4.000000000000000327e-05
8.000000000000000654e-05,8.000000000000000654e-05,0.000000000000000000e+00,-8.000000000000000654e-05,4.000000000000000327e-05,4.000000000000000327e-05,2.000000000000000164e-05,-8.999999999999999212e-05,-6.199999999999999999e-04,-1.499999999999999869e-04,-1.700000000000000122e-04,3.000000000000000076e-05
6.500000000000000786e-05,7.000000000000000742e-05,5.000000000000000409e-06,-7.000000000000000742e-05,3.000000000000000076e-05,4.000000000000000327e-05,3.000000000000000076e-05,-8.000000000000000654e-05,-5.949999999999999343e-04,-1.300000000000000157e-04,-1.450000000000000009e-04,5.000000000000000240e-05
5.000000000000000240e-05,6.000000000000000152e-05,1.000000000000000082e-05,-6.000000000000000152e-05,2.000000000000000164e-05,4.000000000000000327e-05,4.000000000000000327e-05,-7.000000000000000742e-05,-5.700000000000000856e-04,-1.100000000000000039e-04,-1.200000000000000030e-04,7.000000000000000742e-05
4.499999999999999606e-05,4.000000000000000327e-05,-5.000000000000000409e-06,-4.499999999999999606e-05,2.500000000000000120e-05,2.000000000000000164e-05,6.000000000000000152e-05,-5.500000000000000196e-05,-5.600000000000000594e-04,-7.499999999999999343e-05,-1.000000000000000048e-04,8.999999999999999212e-05
4.000000000000000327e-05,2.000000000000000164e-05,-2.000000000000000164e-05,-3.000000000000000076e-05,3.000000000000000076e-05,0.000000000000000000e+00,8.000000000000000654e-05,-4.000000000000000327e-05,-5.500000000000000331e-04,-4.000000000000000327e-05,-8.000000000000000654e-05,1.100000000000000039e-04
4.000000000000000327e-05,1.500000000000000038e-05,-2.500000000000000120e-05,-2.500000000000000120e-05,3.000000000000000076e-05,-5.000000000000000409e-06,6.000000000000000152e-05,-6.500000000000000786e-05,-5.850000000000000165e-04,-5.500000000000000196e-05,-1.100000000000000039e-04,1.000000000000000048e-04
4.000000000000000327e-05,1.000000000000000082e-05,-3.000000000000000076e-05,-2.000000000000000164e-05,3.000000000000000076e-05,-1.000000000000000082e-05,4.000000000000000327e-05,-8.999999999999999212e-05,-6.199999999999999999e-04,-7.000000000000000742e-05,-1.400000000000000148e-04,8.999999999999999212e-05
